994
997
996
997
996
994
994
996
1000
1002
993
995
996
998
1005
1002
999
999
995
1001
1005
1001
1001
998
998
1000
1005
1004
1001
1000
1000
1000
1003
1004
1003
1002
1003
1003
1003
1002
1001
999
1000
1000
1004
1002
1002
1003
1001
1005
1008
1003
1003
999
998
1002
1003
1002
998
999
998
1000
1004
1004
1001
1000
999
1002
1004
1001
1000
1000
999
1003
1000
1007
1004
1002
1003
1004
1008
1006
1003
1002
1004
1007
1011
1010
1009
1009
1011
1013
1013
1017
1017
1017
1018
1018
1021
1017
1010
1006
1006
1007
1010
1011
1005
1000
998
998
998
997
992
989
989
992
996
996
996
992
993
997
999
998
999
992
997
999
1005
1003
1002
1004
1010
1011
1015
1017
1024
1041
1069
1102
1128
1147
1159
1158
1136
1094
1056
1022
1001
993
994
997
999
999
997
996
993
998
1000
1001
1000
995
994
997
1004
1005
1000
997
998
1000
1001
1000
1001
998
999
1001
1004
999
1002
999
999
1001
1003
1003
1000
995
994
998
1002
1002
1002
999
997
999
1002
1002
1000
995
997
999
1003
1002
996
996
997
1000
1003
1000
996
996
996
998
999
999
999
997
997
1001
1001
1002
1002
995
997
1003
1008
1006
1006
1006
1009
1015
1015
1016
1010
1004
1003
1007
1007
1006
1000
997
996
998
1002
1000
999
995
991
988
986
985
979
976
975
974
975
973
970
964
963
966
967
964
963
963
961
964
968
965
964
961
960
963
964
966
965
962
963
967
967
971
969
969
971
972
977
976
977
976
976
979
981
982
981
979
981
983
988
989
985
982
976
975
971
967
970
985
1002
1030
1065
1097
1119
1127
1120
1100
1069
1039
1024
1020
1021
1022
1023
1017
1014
1008
1008
1008
1007
1008
1006
1003
1006
1011
1012
1009
1008
1006
998
1004
1005
1003
1004
999
999
1000
1002
1001
998
996
999
1000
1001
1000
997
993
993
994
995
994
994
990
986
988
992
990
989
985
988
991
992
991
987
988
988
987
991
990
985
984
986
989
987
986
985
984
985
987
990
988
982
978
978
977
980
978
975
971
968
969
971
973
966
969
968
969
972
969
969
970
971
974
977
979
979
981
983
985
987
988
987
984
982
985
984
984
983
979
982
982
984
980
976
976
975
975
978
979
980
979
980
979
984
983
981
977
977
978
981
981
978
974
974
976
978
977
973
970
973
973
975
976
973
970
975
978
978
978
975
975
975
975
980
978
978
979
975
980
980
981
980
977
979
982
985
985
988
985
986
988
992
992
992
994
995
996
999
1000
997
997
999
1001
1003
1003
1000
999
1000
1001
1005
1010
1021
1041
1069
1097
1119
1128
1119
1090
1053
1021
1002
992
989
990
995
995
998
995
992
988
987
988
992
987
985
987
985
990
990
988
983
983
984
985
987
982
983
981
985
986
987
988
986
982
986
987
993
993
991
989
991
992
995
999
998
998
998
1002
1005
1001
1001
997
998
1004
1004
1001
999
998
1002
1005
1010
1008
1005
1003
1004
1004
1008
1005
1000
996
998
997
999
997
995
992
987
989
991
988
988
986
987
989
990
989
983
979
977
978
979
974
972
969
968
969
972
969
967
960
959
961
962
959
956
951
950
955
957
956
954
954
953
953
959
961
959
957
958
961
964
961
960
959
958
959
963
961
959
958
960
960
965
964
961
958
961
962
964
965
959
958
958
962
965
966
964
961
962
962
963
962
961
957
958
958
958
948
935
930
932
942
965
992
1018
1047
1070
1077
1062
1025
990
967
959
964
972
978
981
977
979
977
977
976
974
970
972
973
975
974
973
970
970
969
973
972
969
966
966
968
972
970
967
965
966
967
964
965
962
961
962
967
968
971
967
965
967
971
970
970
969
965
966
967
970
970
967
966
968
971
971
972
969
967
967
970
972
970
968
965
965
967
967
963
958
954
953
953
951
950
947
944
944
944
947
944
942
938
941
940
944
944
943
941
944
945
946
942
937
935
935
939
941
938
934
928
930
931
932
927
925
927
928
930
933
931
927
926
927
928
928
925
922
922
921
923
923
925
923
921
923
926
925
925
922
919
919
920
923
925
919
920
922
923
923
925
921
918
920
926
927
928
925
922
924
926
927
925
924
923
923
922
926
925
921
922
923
924
927
927
924
924
928
936
938
937
935
928
929
928
934
946
963
985
1012
1038
1050
1049
1029
994
964
944
933
926
930
934
940
947
950
946
939
936
937
940
939
939
934
934
936
940
943
940
937
933
934
936
939
938
936
933
931
933
936
936
934
931
934
936
939
938
935
932
933
935
939
938
938
935
937
938
941
938
935
933
934
939
941
942
942
944
947
951
953
953
948
943
947
949
955
957
954
953
956
954
957
951
945
939
940
941
941
939
933
933
931
930
931
923
919
917
917
920
921
916
913
909
909
914
915
912
908
908
906
905
907
906
904
901
901
904
907
906
903
902
902
904
909
908
906
904
902
905
907
908
905
903
902
906
908
906
904
902
900
903
905
908
904
902
899
903
907
905
907
906
910
914
920
923
925
925
925
924
929
929
929
930
935
943
947
947
944
942
943
946
950
948
946
947
949
950
952
949
943
933
930
935
944
961
986
1018
1049
1071
1075
1059
1021
978
946
934
939
948
954
957
957
958
957
955
954
954
957
960
962
963
961
956
958
962
966
964
963
960
964
963
961
962
960
954
954
955
957
952
955
949
951
957
960
963
965
967
971
975
980
983
984
986
988
994
994
995
997
995
995
998
1002
999
999
1001
1001
1001
1003
1000
998
994
997
999
996
997
997
991
994
996
999
995
990
985
985
985
987
982
978
971
971
973
974
973
969
968
968
966
967
964
964
962
963
960
965
961
958
953
956
957
957
953
952
947
944
947
947
947
945
940
940
939
942
942
939
937
945
953
958
964
967
966
969
974
978
979
980
979
980
983
990
990
988
984
985
987
991
990
988
985
984
990
990
989
987
985
984
989
992
990
989
988
989
991
994
993
989
989
987
990
994
992
989
987
990
993
993
993
990
985
984
987
989
988
984
982
980
979
981
988
1004
1031
1069
1101
1125
1126
1103
1057
1010
979
961
956
956
954
954
954
952
950
945
940
942
948
958
960
964
964
969
976
984
990
994
998
1000
1002
1006
1006
1009
1009
1012
1014
1016
1015
1012
1011
1011
1010
1015
1011
1011
1008
1010
1013
1015
1013
1012
1012
1016
1018
1016
1016
1011
1012
1017
1023
1023
1020
1020
1018
1017
1020
1019
1019
1017
1014
1012
1017
1016
1013
1009
1005
1004
1008
1005
1006
1000
994
996
996
994
990
986
982
981
981
978
972
964
960
959
952
956
951
945
940
938
941
941
939
937
932
936
942
950
954
959
964
967
971
970
975
975
975
976
978
979
979
976
974
973
980
982
982
977
975
976
983
985
983
984
983
985
987
990
987
983
978
977
975
968
961
955
972
1003
1042
1080
1107
1124
1122
1099
1062
1026
1001
993
995
1001
1003
999
993
988
985
987
988
989
990
987
984
984
989
989
990
987
986
986
988
990
988
987
982
981
986
986
985
983
982
984
986
990
990
988
988
990
990
990
988
984
986
989
992
996
994
992
991
992
995
997
997
993
991
992
993
994
993
986
985
986
984
985
982
981
975
977
978
978
974
967
963
963
963
964
964
958
955
956
957
958
956
956
955
956
956
957
953
952
948
947
951
953
952
951
947
949
951
951
949
949
947
949
950
953
955
951
951
949
952
955
956
951
950
952
952
955
956
951
954
950
956
955
952
949
949
954
952
958
955
953
952
955
954
957
955
954
954
955
959
958
956
953
954
953
955
958
955
952
952
956
958
962
961
957
953
956
957
961
959
955
953
957
958
963
961
961
957
956
959
961
959
956
954
955
959
963
960
957
955
955
959
958
959
956
956
954
957
959
958
955
951
953
956
956
957
953
956
957
958
960
954
954
953
956
957
961
958
955
954
954
958
959
955
953
953
953
956
957
957
950
952
955
957
957
957
953
953
954
954
959
958
956
955
957
956
959
958
956
955
956
958
956
957
956
954
955
958
959
959
954
957
956
958
960
960
959
956
957
960
960
958
959
957
957
956
960
958
954
952
954
954
957
956
952
951
954
959
956
954
955
951
953
957
957
957
953
951
952
953
955
955
950
948
949
949
953
957
956
952
954
955
957
958
956
954
955
953
957
958
953
954
956
955
959
956
954
952
952
952
953
951
949
948
947
952
953
950
947
949
949
951
949
947
946
942
942
947
948
947
945
940
941
945
947
942
939
937
938
941
940
939
933
932
930
930
927
924
918
915
915
919
922
920
915
913
928
960
1002
1039
1068
1090
1095
1080
1037
990
959
949
955
962
961
954
949
943
942
945
946
945
944
946
946
949
950
949
949
949
949
949
947
947
947
945
948
947
947
949
949
946
949
952
954
954
954
953
954
956
957
956
950
948
952
955
957
955
954
956
956
958
959
958
955
955
959
963
967
963
960
962
964
968
968
968
968
968
965
965
967
965
966
964
964
968
971
969
964
965
962
959
955
953
949
949
950
951
952
949
945
938
938
939
940
937
934
931
929
929
927
922
918
915
916
920
922
919
917
914
910
909
909
906
905
903
906
909
907
908
905
900
904
905
909
909
906
904
902
906
907
905
901
899
900
903
905
905
900
902
903
903
907
904
902
901
901
904
908
908
905
905
900
903
904
903
902
905
907
907
908
906
903
902
901
904
906
908
907
907
909
909
909
906
901
902
906
909
912
909
904
900
903
905
909
905
899
898
899
903
905
903
901
897
898
901
906
910
907
907
907
906
909
904
901
897
900
899
898
897
898
898
897
902
906
903
902
904
903
904
905
908
904
903
903
909
911
911
908
903
899
898
902
903
904
901
900
903
904
901
899
896
899
903
905
905
905
902
904
904
905
905
903
904
902
907
908
907
903
904
905
907
908
910
904
904
907
908
909
909
905
907
907
911
913
913
909
905
907
913
916
911
911
907
911
912
911
913
910
910
912
911
912
915
914
913
915
915
918
916
913
915
919
924
925
922
917
913
913
921
921
918
917
916
918
921
920
921
919
916
919
923
922
924
921
919
923
923
925
924
923
924
927
931
935
930
928
928
933
934
937
937
933
931
934
940
939
942
937
933
935
940
942
943
939
939
942
943
942
948
943
942
945
948
952
950
954
957
963
970
973
972
971
975
978
981
982
980
976
971
968
968
972
965
953
944
947
965
996
1031
1067
1100
1125
1130
1108
1065
1010
979
963
963
970
973
972
965
962
964
966
963
960
956
960
960
964
963
961
960
963
964
968
971
968
965
970
972
973
974
971
973
974
976
979
979
976
970
978
983
982
981
981
980
981
986
989
988
985
981
983
984
986
988
982
984
982
987
988
989
985
984
983
985
989
988
988
986
987
987
992
989
990
989
988
989
992
993
988
990
991
991
993
994
989
988
988
991
993
992
987
983
984
986
987
982
982
979
979
981
981
981
979
976
972
975
972
976
974
971
971
975
975
971
970
964
968
968
971
970
967
966
968
969
972
969
967
964
967
966
968
969
968
964
965
967
970
971
966
965
967
969
973
969
971
969
969
968
970
971
972
971
970
973
977
977
973
972
971
974
980
981
976
973
976
978
978
976
971
974
974
978
979
978
976
972
977
978
978
975
973
977
979
981
983
984
983
979
979
980
985
983
982
980
980
983
985
984
981
980
980
983
984
982
979
980
982
986
986
984
981
980
982
984
984
983
981
982
982
986
985
986
982
979
982
986
987
982
981
979
982
985
990
989
986
985
981
984
987
988
983
983
984
985
985
982
983
981
985
986
986
987
985
984
988
988
990
989
987
984
983
986
987
988
985
984
988
991
990
990
988
987
987
989
988
987
986
983
986
987
987
989
989
989
988
992
995
991
989
987
987
992
993
994
989
987
987
994
994
991
991
987
988
989
993
991
988
984
985
990
992
991
991
988
986
990
995
992
992
992
991
994
997
998
994
991
990
994
994
992
988
987
988
993
992
990
991
987
987
993
995
992
988
988
990
993
991
988
984
984
988
992
994
991
989
985
986
987
991
989
990
987
991
991
996
993
993
990
989
992
992
988
987
985
985
992
992
995
990
992
992
995
997
990
991
989
990
995
997
993
992
987
988
989
994
1010
1033
1065
1108
1143
1175
1196
1196
1173
1127
1080
1044
1024
1016
1010
1010
1006
1004
997
988
983
984
992
994
992
987
983
984
989
991
990
988
987
989
992
994
995
994
992
992
995
1002
1000
1001
1005
1009
1014
1021
1026
1026
1024
1025
1029
1033
1032
1031
1028
1030
1032
1033
1032
1026
1022
1017
1014
1009
1001
992
986
984
986
985
985
982
981
983
988
991
991
988
988
987
991
989
990
989
988
990
991
994
995
991
989
988
989
991
988
984
982
983
981
984
981
974
973
975
976
974
970
968
963
964
964
965
961
961
955
958
956
959
958
955
954
955
958
955
956
954
952
952
951
955
953
951
951
950
955
956
955
947
949
950
949
955
953
954
952
956
955
959
959
953
951
954
955
956
955
953
955
956
959
961
962
958
956
959
963
964
962
958
957
958
960
964
963
959
955
958
959
962
959
958
957
960
961
966
964
962
965
966
969
966
966
960
960
959
963
963
962
960
958
962
963
962
963
962
961
962
963
967
967
966
963
964
962
965
964
965
962
961
963
963
963
961
958
962
962
964
964
961
962
961
962
963
961
961
960
961
963
964
964
961
958
963
965
965
961
958
963
963
965
966
963
958
956
959
961
964
962
959
961
962
967
966
962
958
950
955
959
961
961
960
959
958
959
960
963
960
954
957
958
962
962
957
952
955
955
960
958
956
957
957
962
961
961
958
957
959
962
964
960
957
956
956
957
957
953
950
950
951
956
958
957
952
954
956
961
962
962
957
954
951
956
956
960
955
952
951
955
956
954
952
950
950
954
955
954
952
947
949
951
957
956
954
953
954
957
958
956
951
948
949
957
958
959
959
957
956
953
954
951
953
953
954
955
957
955
956
953
956
955
959
955
955
954
954
958
961
961
957
956
954
957
956
948
940
947
975
1012
1060
1098
1122
1115
1076
1022
980
956
951
957
957
957
956
948
943
940
941
944
942
943
934
928
926
929
933
938
936
937
938
944
951
950
949
948
951
954
958
957
955
952
956
957
957
958
956
955
954
953
957
958
956
954
957
959
962
963
963
961
963
965
967
966
962
963
962
966
966
964
964
962
964
966
968
967
964
964
964
968
969
966
966
965
967
966
969
964
965
963
966
969
972
969
964
963
963
965
966
964
960
959
959
960
960
959
957
957
958
957
959
957
954
954
958
962
964
962
959
957
959
962
963
964
959
959
962
967
969
970
967
966
966
969
971
973
973
974
974
977
976
978
977
978
978
984
984
983
982
980
983
984
988
986
983
981
987
989
991
987
986
987
986
990
992
992
987
987
989
992
994
995
992
990
988
993
994
997
992
989
992
998
996
997
992
992
993
992
996
995
992
992
994
994
997
997
997
998
999
997
998
999
996
994
996
999
1000
999
997
995
999
1002
1003
998
998
995
998
1003
1006
1004
1000
997
998
1003
1006
1004
1001
1001
1001
1004
1007
1006
1005
1002
1005
1008
1008
1005
1001
999
1003
1009
1012
1008
1003
1002
1003
1005
1007
1001
997
1002
1003
1009
1009
1009
1008
1005
1005
1008
1010
1001
1001
1003
1007
1011
1010
1010
1008
1006
1007
1010
1009
1005
1006
1004
1007
1009
1007
1007
1005
1006
1009
1009
1009
1009
1007
1003
1002
1009
1012
1010
1006
1002
1006
1011
1012
1010
1009
1005
1009
1009
1008
1008
1006
1005
1008
1012
1011
1009
1003
1005
1004
1009
1012
1011
1012
1009
1010
1009
1010
1006
1008
1004
1006
1008
1012
1010
1008
1003
1007
1008
1009
1009
1007
1006
1007
1009
1011
1009
1004
1005
1005
1008
1010
1008
1009
1008
1008
1013
1015
1012
1007
1007
1009
1007
1010
1010
1007
1006
1010
1013
1015
1018
1011
1014
1014
1019
1015
1014
1009
1005
1008
1027
1063
1105
1145
1178
1208
1229
1226
1189
1128
1076
1047
1036
1034
1027
1019
1009
1003
1003
996
992
994
991
994
994
994
990
982
977
978
986
992
994
992
993
996
999
1004
1006
1002
1001
1003
1006
1008
1006
1001
1001
999
1003
1004
1006
1005
1004
1007
1011
1011
1006
1002
1005
1008
1011
1014
1012
1010
1011
1011
1012
1013
1014
1011
1011
1011
1013
1018
1018
1011
1008
1010
1013
1014
1013
1008
1006
1010
1014
1017
1016
1012
1009
1010
1010
1009
1008
1006
1004
1004
1005
1001
1000
994
994
994
995
997
992
988
984
988
989
993
988
986
984
986
987
990
987
988
986
983
985
985
986
985
984
987
987
990
990
991
992
992
993
995
994
990
993
991
993
994
993
993
993
995
998
997
994
994
996
996
1000
1001
1001
996
993
997
999
1000
999
997
997
997
998
999
998
995
995
998
1001
998
998
997
997
996
999
1002
997
998
997
997
1001
1000
996
992
991
992
998
1002
1001
999
999
1001
1003
1002
1003
999
998
998
1002
1003
1001
998
995
997
1000
1003
1003
998
995
999
1000
999
998
996
995
999
1000
1000
998
995
995
993
995
994
994
992
992
994
994
998
995
992
990
988
992
991
989
990
989
990
993
991
989
986
982
984
986
989
991
986
982
984
985
988
982
981
982
982
984
985
984
984
982
981
983
985
986
982
984
988
988
987
984
983
981
979
984
986
981
982
978
980
982
983
981
978
982
983
987
984
984
981
977
980
982
984
979
977
974
976
981
982
980
975
977
981
980
982
979
976
977
975
976
979
979
976
973
977
977
980
972
970
972
976
976
979
973
973
970
972
975
979
976
976
975
977
978
978
975
972
972
975
975
978
976
975
976
980
977
979
977
974
974
973
977
976
977
975
973
974
978
981
981
980
981
981
985
986
985
980
974
979
993
1023
1061
1104
1148
1181
1190
1159
1100
1043
1008
995
1000
1006
1002
994
984
979
977
973
970
964
958
959
962
962
960
956
954
957
962
963
961
960
959
959
961
965
963
961
961
960
960
962
961
962
959
961
963
964
965
963
962
966
967
969
965
963
963
968
968
967
965
963
962
962
965
965
965
960
960
961
963
964
963
957
955
954
954
957
960
958
953
955
954
955
955
952
950
950
951
954
950
946
944
945
945
945
942
937
935
931
933
936
933
931
930
930
927
925
923
920
920
923
924
924
918
916
916
922
926
929
926
922
920
922
928
932
933
933
930
930
931
932
932
931
933
934
939
939
938
937
938
941
941
944
940
940
937
942
942
945
947
944
943
946
952
952
952
948
948
948
950
951
948
947
945
946
951
954
954
952
949
953
955
955
957
954
953
956
955
955
951
949
952
951
956
957
956
952
949
953
959
957
958
958
955
954
958
958
959
956
955
960
960
958
960
956
958
961
959
960
960
958
958
961
962
963
959
958
958
959
960
965
961
961
960
960
962
963
959
957
959
961
963
967
964
963
962
964
964
964
962
961
962
964
969
971
968
962
963
964
968
970
970
968
966
966
967
969
967
967
965
966
970
972
972
969
965
968
970
970
966
966
966
970
973
976
976
970
971
974
980
981
980
979
979
985
986
986
984
980
984
988
993
998
997
995
994
994
994
998
998
998
999
998
998
1001
1002
1000
1000
1002
1006
1008
1007
999
995
993
992
988
983
978
980
984
984
981
975
964
961
959
964
965
959
959
955
958
962
962
961
958
956
958
964
965
965
957
960
962
957
955
951
958
971
999
1029
1060
1084
1093
1076
1035
990
960
946
944
949
960
966
970
965
962
958
959
962
962
959
955
957
959
962
964
962
960
961
964
965
965
961
960
963
968
969
973
972
967
972
971
974
975
973
972
974
976
979
980
980
979
980
982
985
986
985
983
984
987
989
989
986
988
988
992
994
994
993
990
988
992
994
995
992
990
987
990
994
989
989
990
989
989
990
990
990
986
986
989
991
989
986
983
982
984
986
982
980
977
975
977
978
975
975
970
970
972
974
977
975
973
973
977
979
979
980
976
973
976
978
982
979
979
982
983
988
986
984
986
986
988
988
990
990
987
991
991
994
1001
999
997
999
1001
1003
1008
1005
1003
1001
1005
1005
1009
1005
1003
1004
1005
1009
1008
1007
1007
1005
1009
1011
1011
1008
1004
1004
1006
1010
1012
1011
1009
1006
1009
1009
1009
1013
1007
1007
1013
1015
1018
1014
1012
1013
1011
1015
1017
1015
1012
1011
1016
1015
1016
1013
1007
1010
1009
1016
1017
1017
1015
1015
1016
1018
1016
1015
1011
1013
1017
1020
1016
1017
1016
1014
1017
1018
1019
1017
1014
1014
1018
1021
1021
1018
1017
1013
1016
1016
1021
1018
1014
1016
1018
1020
1022
1020
1019
1017
1020
1021
1022
1021
1020
1018
1019
1023
1026
1024
1024
1024
1028
1031
1034
1034
1035
1035
1041
1049
1053
1057
1060
1063
1065
1070
1074
1073
1068
1068
1068
1068
1063
1061
1057
1053
1054
1052
1045
1035
1027
1025
1025
1025
1022
1019
1016
1016
1017
1021
1020
1020
1018
1018
1019
1022
1023
1023
1022
1021
1024
1027
1033
1027
1029
1028
1036
1051
1078
1113
1147
1177
1207
1227
1227
1198
1146
1084
1044
1022
1018
1021
1020
1021
1026
1025
1026
1023
1018
1019
1019
1024
1024
1025
1022
1021
1021
1024
1026
1022
1024
1024
1024
1026
1028
1029
1029
1025
1028
1029
1029
1028
1027
1024
1031
1032
1036
1034
1031
1031
1031
1035
1040
1039
1035
1034
1037
1039
1041
1039
1038
1037
1040
1044
1048
1046
1043
1041
1044
1046
1048
1047
1045
1045
1049
1051
1049
1048
1045
1044
1049
1053
1051
1052
1048
1048
1049
1049
1051
1049
1047
1045
1048
1049
1049
1047
1044
1041
1040
1040
1042
1038
1036
1036
1036
1038
1037
1034
1029
1029
1034
1035
1033
1031
1027
1028
1029
1034
1036
1036
1029
1029
1029
1030
1031
1032
1030
1028
1032
1033
1036
1031
1030
1030
1033
1035
1032
1028
1026
1028
1027
1030
1031
1029
1029
1029
1032
1034
1034
1034
1028
1023
1026
1026
1027
1025
1024
1022
1023
1026
1027
1027
1021
1021
1024
1028
1029
1029
1024
1024
1021
1022
1022
1023
1018
1021
1021
1023
1021
1022
1019
1019
1023
1024
1026
1023
1020
1020
1021
1023
1023
1020
1013
1010
1014
1021
1027
1024
1018
1016
1014
1019
1021
1019
1015
1016
1019
1017
1017
1017
1015
1017
1019
1024
1022
1021
1017
1015
1016
1018
1018
1020
1016
1013
1014
1019
1020
1014
1016
1017
1018
1019
1019
1016
1012
1012
1011
1016
1022
1015
1016
1015
1018
1023
1028
1030
1026
1025
1027
1029
1032
1038
1043
1047
1054
1061
1059
1060
1055
1048
1049
1051
1047
1042
1033
1029
1029
1028
1026
1016
1010
1003
1002
999
1000
998
995
993
993
995
994
992
991
991
991
993
994
996
992
997
998
1000
995
992
986
987
998
1021
1050
1082
1112
1130
1125
1090
1032
989
965
961
965
978
990
995
992
989
991
990
991
988
980
979
984
984
984
984
983
985
988
987
985
984
981
982
985
990
989
985
979
978
984
984
984
981
979
979
982
984
985
983
977
975
980
983
982
981
980
977
976
980
979
978
979
976
980
979
978
975
971
973
976
981
979
974
972
971
973
972
971
970
964
966
969
974
972
966
966
962
959
962
966
965
960
958
956
955
957
956
949
948
950
948
951
948
951
952
952
953
950
949
949
949
950
952
954
950
951
954
957
957
957
957
952
954
956
960
960
958
955
955
955
962
963
960
960
960
963
966
967
963
960
962
965
968
966
964
962
961
965
969
970
967
966
962
967
972
975
974
972
970
970
974
978
977
976
975
974
974
975
978
976
978
976
975
977
979
977
978
979
982
982
983
981
980
979
984
986
982
979
979
981
982
984
979
980
977
983
984
988
984
982
981
982
986
984
978
981
981
983
987
987
985
982
982
984
986
987
984
982
982
989
991
992
989
986
985
988
989
988
990
987
986
989
991
993
989
985
984
991
992
993
991
990
989
992
993
994
991
991
990
993
995
996
995
996
997
996
1000
1003
1006
1006
1009
1012
1021
1025
1027
1029
1030
1038
1046
1047
1046
1046
1045
1046
1043
1039
1035
1030
1025
1026
1022
1017
1008
1004
999
997
999
998
999
998
997
999
999
1001
999
1000
999
1004
1008
1009
1007
1003
1007
1009
1010
1006
1007
1017
1045
1084
1123
1161
1192
1204
1183
1137
1079
1031
1004
993
994
1005
1013
1015
1011
1005
1002
1001
1006
1004
1006
1002
1002
1005
1005
1008
1008
1005
1007
1008
1009
1011
1008
1005
1006
1009
1010
1009
1007
1007
1007
1009
1011
1011
1012
1007
1010
1010
1013
1013
1014
1010
1013
1016
1018
1016
1014
1011
1011
1012
1019
1019
1014
1012
1013
1018
1019
1020
1016
1012
1012
1012
1018
1019
1019
1015
1015
1016
1016
1018
1018
1015
1015
1016
1019
1016
1017
1013
1012
1014
1013
1014
1012
1009
1008
1010
1011
1009
1009
1007
1007
1007
1009
1008
1006
1005
1006
1009
1010
1011
1008
1008
1007
1011
1014
1012
1010
1011
1011
1013
1016
1016
1014
1012
1014
1015
1020
1019
1017
1015
1015
1015
1022
1021
1020
1017
1016
1018
1022
1021
1020
1019
1014
1017
1020
1020
1021
1016
1015
1016
1018
1019
1018
1019
1017
1020
1021
1021
1017
1019
1017
1020
1020
1023
1021
1017
1020
1021
1023
1022
1022
1020
1020
1020
1023
1022
1023
1020
1017
1022
1025
1025
1025
1023
1021
1024
1023
1024
1022
1020
1019
1024
1024
1025
1023
1019
1020
1023
1023
1025
1022
1020
1018
1024
1027
1029
1028
1027
1029
1033
1037
1041
1042
1039
1042
1046
1056
1063
1072
1074
1078
1078
1079
1079
1077
1069
1067
1067
1067
1064
1059
1054
1048
1046
1040
1035
1026
1021
1019
1020
1018
1019
1015
1014
1015
1017
1018
1018
1017
1016
1018
1020
1022
1023
1024
1021
1018
1023
1024
1020
1011
1008
1013
1036
1067
1100
1133
1165
1189
1198
1174
1118
1057
1017
1002
1008
1019
1025
1025
1024
1019
1022
1020
1020
1018
1018
1022
1025
1031
1029
1027
1028
1025
1030
1032
1034
1031
1029
1028
1030
1034
1032
1031
1027
1027
1033
1034
1036
1032
1033
1035
1036
1039
1039
1042
1041
1043
1044
1046
1047
1044
1044
1041
1044
1047
1046
1045
1040
1042
1047
1047
1048
1044
1042
1041
1042
1047
1047
1047
1046
1045
1047
1050
1052
1053
1047
1047
1047
1049
1050
1047
1041
1042
1042
1044
1044
1040
1037
1037
1037
1038
1036
1034
1032
1032
1034
1033
1031
1029
1027
1028
1030
1032
1032
1029
1024
1022
1026
1028
1027
1025
1023
1025
1026
1029
1027
1026
1023
1021
1025
1028
1030
1025
1022
1021
1022
1025
1027
1022
1019
1019
1023
1025
1025
1024
1023
1023
1023
1026
1026
1026
1021
1025
1026
1027
1024
1024
1020
1022
1025
1026
1027
1026
1018
1021
1027
1026
1026
1024
1022
1023
1024
1027
1025
1023
1023
1023
1027
1028
1026
1023
1022
1023
1024
1027
1027
1024
1022
1023
1026
1029
1027
1026
1023
1022
1027
1028
1029
1028
1025
1024
1026
1028
1028
1027
1025
1023
1025
1028
1029
1025
1024
1025
1029
1030
1031
1029
1028
1026
1028
1031
1030
1029
1025
1027
1028
1029
1031
1025
1023
1021
1025
1025
1025
1026
1023
1024
1024
1028
1030
1026
1024
1025
1025
1028
1029
1025
1025
1028
1030
1032
1035
1036
1034
1040
1045
1053
1057
1060
1064
1068
1077
1081
1080
1081
1077
1075
1069
1071
1068
1059
1052
1049
1047
1042
1037
1028
1021
1016
1017
1014
1014
1012
1012
1011
1014
1018
1016
1012
1011
1010
1015
1015
1016
1016
1015
1016
1018
1021
1020
1013
1002
998
1013
1040
1074
1111
1145
1173
1181
1165
1110
1049
1004
989
991
1004
1016
1017
1019
1015
1013
1014
1014
1011
1011
1012
1015
1018
1019
1016
1017
1016
1018
1022
1023
1019
1016
1017
1018
1024
1024
1024
1017
1014
1018
1021
1018
1021
1020
1017
1021
1024
1028
1025
1023
1023
1023
1027
1028
1026
1024
1023
1024
1028
1027
1024
1021
1023
1025
1025
1025
1025
1023
1022
1024
1028
1027
1025
1025
1024
1028
1031
1031
1023
1024
1022
1027
1027
1028
1027
1021
1024
1027
1031
1031
1028
1023
1023
1023
1025
1023
1024
1024
1023
1025
1031
1034
1031
1027
1028
1030
1037
1038
1031
1031
1032
1033
1035
1030
1025
1018
1015
1013
1010
1007
1003
1000
999
997
998
993
991
986
983
987
993
989
987
984
984
988
992
988
989
985
982
988
988
991
986
983
982
984
985
985
984
985
986
988
987
987
988
983
985
987
987
983
984
981
982
986
990
989
989
986
988
984
986
988
990
986
985
988
989
991
987
985
986
989
992
991
991
986
989
995
994
997
995
992
993
998
999
1001
1000
998
999
1004
1004
1006
1005
1000
1000
1009
1011
1014
1014
1015
1015
1019
1024
1029
1035
1039
1053
1063
1073
1075
1072
1069
1068
1069
1070
1064
1063
1057
1053
1047
1049
1038
1027
1020
1014
1013
1014
1011
1009
1008
1010
1012
1014
1015
1011
1012
1011
1012
1020
1019
1014
1017
1014
1015
1017
1017
1010
997
985
981
987
1007
1033
1062
1098
1128
1143
1124
1073
1016
981
975
988
1003
1017
1021
1025
1021
1022
1020
1018
1019
1021
1020
1024
1024
1024
1021
1023
1027
1028
1029
1027
1022
1025
1027
1030
1029
1030
1027
1025
1029
1028
1029
1028
1028
1028
1031
1034
1033
1030
1027
1027
1028
1034
1033
1031
1027
1027
1032
1035
1032
1032
1028
1029
1032
1036
1034
1032
1029
1027
1029
1032
1033
1032
1029
1028
1028
1030
1027
1028
1025
1026
1026
1030
1029
1027
1023
1022
1021
1024
1024
1021
1020
1022
1023
1022
1020
1023
1022
1022
1025
1026
1025
1030
1031
1035
1038
1041
1038
1036
1033
1033
1032
1031
1029
1026
1026
1025
1029
1030
1024
1018
1011
1007
1008
1009
1006
1003
998
999
1004
1005
999
997
997
998
997
1005
1006
1003
1000
1000
1005
1005
1006
1004
999
1001
1004
1008
1008
1003
1002
1004
1008
1011
1010
1008
1006
1002
997
993
983
976
970
981
1011
1053
1103
1144
1169
1172
1145
1092
1039
1007
997
1005
1018
1026
1022
1019
1010
1009
1009
1012
1012
1012
1006
1011
1015
1014
1018
1014
1012
1014
1015
1016
1017
1012
1013
1007
1010
1010
1011
1011
1008
1010
1012
1016
1016
1018
1018
1018
1022
1022
1023
1018
1015
1011
1015
1016
1014
1013
1013
1017
1023
1026
1028
1026
1023
1023
1024
1024
1024
1020
1016
1025
1026
1028
1027
1023
1020
1021
1023
1026
1027
1024
1020
1015
1013
1010
1006
1002
997
997
1000
1005
1003
1001
999
999
1002
1004
1001
998
993
991
992
997
1001
1003
1003
1002
1003
1004
1004
1004
1000
1001
1001
1002
998
997
998
998
995
989
987
994
1005
1010
1008
1006
1004
1001
1000
1002
1002
1004
1003
1002
1001
1002
1005
1009
1008
1007
1002
1001
998
1003
1005
1007
1007
1008
1009
1007
1005
1002
1003
1001
1001
1004
1003
999
996
995
1001
1008
1009
1003
998
999
1000
1002
1002
1002
1000
1000
1003
1002
1002
1003
998
994
1003
1008
1006
1004
1002
996
1000
1002
1008
1012
1006
1003
1001
1004
1006
1005
1003
1002
1000
1006
1005
1005
1002
997
997
1004
1007
1001
1001
997
1000
1006
1008
1006
1002
998
1000
1002
1008
1008
1004
1003
1005
1004
1006
1002
998
997
999
1002
1005
1004
1002
1003
1004
1008
1004
1002
1000
1000
1001
1002
1006
1004
1004
1002
1004
1006
1008
1001
998
1001
1003
1005
1005
1004
1000
1004
1005
1006
1003
1002
1001
1003
1006
1006
1008
1004
1001
1001
1003
1004
1004
1001
996
997
1000
1006
1007
1001
998
996
1002
1006
1005
1004
1001
997
999
1005
1004
1004
1003
1002
1004
1010
1009
1006
1005
1004
1005
1002
1003
1004
1004
1005
1008
1010
1011
1006
1004
1002
1005
1005
1006
1005
1005
1004
1007
1005
1005
1004
1001
1001
1004
1011
1010
1010
1006
1005
1003
1007
1007
1005
1000
1004
1007
1010
1008
1006
1001
1001
1004
1011
1010
1009
1006
1005
1008
1008
1008
1005
1004
1004
1003
1004
1007
1006
1005
1006
1009
1008
1009
1005
1003
1001
1002
1009
1009
1007
1007
1010
1014
1017
1019
1015
1011
1011
1012
1017
1026
1027
1026
1030
1033
1039
1044
1047
1043
1044
1046
1045
1041
1030
1022
1020
1023
1027
1021
1016
1010
1009
1009
1008
1006
1004
996
998
998
1003
1003
1003
1003
1003
1006
1007
1008
1007
1006
1006
1009
1013
1016
1013
1010
1008
1014
1020
1026
1048
1081
1122
1162
1194
1209
1198
1155
1101
1053
1025
1008
1004
1003
1006
1007
1008
1008
1006
1002
1004
1004
1004
1003
1001
998
997
1002
1004
1004
1003
998
998
1003
1002
1002
1000
998
996
1000
1001
1000
999
1001
1002
1007
1006
1008
1006
1002
1001
1005
1007
1011
1005
1001
1004
1004
1007
1007
1007
1003
1007
1008
1012
1014
1013
1008
1007
1008
1012
1012
1015
1014
1012
1015
1018
1019
1016
1013
1012
1017
1019
1019
1014
1016
1017
1016
1020
1016
1017
1016
1015
1018
1019
1021
1017
1018
1013
1017
1021
1017
1016
1012
1009
1011
1012
1010
1010
1008
1004
1007
1008
1007
1004
998
998
999
1001
1001
995
992
992
994
995
994
991
987
988
989
992
990
985
982
983
985
988
987
986
980
982
983
986
986
986
984
981
984
984
986
986
984
984
986
991
991
988
985
985
987
988
986
983
982
984
985
988
986
986
983
984
986
985
985
984
985
983
985
986
986
985
980
980
983
989
989
987
985
986
987
992
990
990
989
986
984
985
985
982
984
982
986
981
979
976
977
980
982
982
981
978
976
976
976
980
975
975
969
969
972
974
975
978
974
971
967
968
964
961
961
961
964
970
967
965
965
965
967
972
970
966
963
959
962
965
965
964
960
960
963
965
965
962
963
961
962
967
966
964
957
953
952
955
955
956
957
960
960
963
963
962
961
961
962
961
958
954
958
961
966
970
966
969
967
971
971
973
973
970
968
968
976
977
976
965
963
962
961
966
965
960
950
948
950
952
948
947
949
948
950
957
959
952
948
950
955
960
958
954
954
954
960
965
968
968
973
980
987
989
982
978
975
973
970
969
972
969
963
958
957
958
954
946
940
940
942
948
945
942
938
943
944
943
945
945
946
947
946
949
948
951
951
948
950
948
939
932
932
942
962
996
1030
1056
1063
1046
1007
961
925
914
923
936
955
967
973
973
972
971
971
977
977
973
976
974
977
983
982
981
981
983
985
988
986
985
987
990
992
995
993
990
989
994
996
999
998
998
996
998
995
1000
999
997
997
998
1004
1008
1010
1009
1007
1007
1009
1013
1012
1010
1007
1008
1010
1015
1013
1010
1009
1009
1013
1013
1014
1011
1007
1008
1009
1013
1012
1009
1005
1004
1013
1014
1014
1011
1008
1005
1008
1011
1010
1010
1006
1005
1004
1006
1002
1002
999
996
997
1000
996
991
988
989
993
992
990
990
986
984
988
987
986
985
984
982
985
987
985
984
984
984
987
991
989
986
983
985
988
991
989
993
990
989
990
994
994
991
993
991
994
1000
996
994
994
994
997
999
996
996
994
996
999
1002
1002
999
996
997
997
1001
1002
1000
997
998
998
1003
1002
1000
999
998
1002
1002
1002
1001
999
999
1001
1003
1001
999
996
999
1002
1007
1002
998
996
997
1000
1003
1002
1000
997
997
1000
1001
1001
1002
999
998
998
1001
1001
998
995
993
1000
1002
1001
999
996
995
1000
1003
1000
1000
997
998
1002
1005
1007
1003
1000
999
999
1001
1000
997
1000
998
999
1002
999
994
995
996
999
1003
999
999
999
997
999
1003
1002
998
994
996
999
1004
1001
999
996
995
997
1000
998
998
994
995
996
999
997
996
998
997
1001
1004
999
998
996
998
1001
1003
1001
996
989
994
998
1001
1000
1000
996
997
996
1000
1002
1000
999
996
1000
1006
1005
1007
1005
1007
1013
1014
1012
1009
1011
1014
1017
1020
1021
1023
1025
1029
1034
1035
1034
1030
1025
1022
1023
1023
1018
1017
1015
1011
1008
1008
1002
994
992
987
991
995
995
992
992
987
992
995
995
995
995
997
999
1004
1007
1004
1004
1009
1020
1042
1073
1107
1135
1157
1181
1198
1192
1158
1100
1037
1005
994
994
991
986
985
992
997
995
991
990
988
989
993
992
988
987
987
988
993
991
993
986
985
986
989
989
987
987
987
989
991
993
989
989
989
993
995
989
991
990
990
990
993
993
991
987
985
990
994
995
994
989
989
988
994
993
991
991
989
994
995
995
993
990
990
991
995
993
991
990
994
996
995
995
993
989
989
993
995
999
994
990
988
990
993
995
987
985
984
983
986
985
984
982
981
982
983
980
976
974
974
976
976
975
972
971
973
974
978
973
969
969
969
973
975
975
974
970
973
977
978
979
979
977
978
979
985
983
983
978
979
982
985
983
982
980
979
982
987
987
985
984
986
984
986
987
984
983
983
989
990
990
989
988
988
984
992
991
990
987
988
992
994
993
990
990
991
991
995
994
993
992
991
994
996
994
993
990
992
995
996
996
994
995
995
996
997
997
995
993
996
997
994
997
994
992
994
999
1002
996
995
995
997
1000
999
1001
999
999
999
1003
1004
1002
998
999
998
1000
1005
1003
998
994
998
1001
1004
1006
1003
1000
995
998
1000
1001
999
1001
1000
1001
1003
1002
998
997
1000
1001
1002
1001
1000
998
998
1000
1004
1004
1005
1005
1003
1007
1010
1011
1008
1009
1008
1011
1013
1010
1013
1012
1016
1021
1027
1029
1028
1026
1024
1028
1029
1028
1022
1015
1015
1014
1018
1014
1006
998
994
996
997
993
991
987
988
992
994
991
989
988
990
992
995
994
993
993
995
997
998
994
986
986
997
1021
1052
1088
1120
1144
1160
1158
1128
1065
1010
977
965
974
988
994
993
992
988
989
991
990
990
986
986
988
994
990
990
989
990
992
994
990
990
988
989
992
995
993
992
992
990
994
998
996
992
990
993
992
1000
996
992
992
991
996
1000
999
997
995
994
999
999
999
996
993
992
995
1000
999
998
993
994
995
1003
1000
998
995
998
999
1004
1002
1001
999
996
999
998
1000
1000
997
998
1000
1003
999
997
992
993
992
994
990
985
983
983
987
990
986
982
979
979
980
984
981
981
978
976
980
984
983
980
975
976
979
980
978
976
974
974
975
978
978
976
975
975
978
981
981
975
977
977
980
986
985
981
980
979
984
987
987
984
980
982
987
990
986
985
985
986
989
993
990
987
989
989
992
994
993
993
987
991
993
1000
996
994
993
994
997
997
995
994
988
990
993
1000
997
992
990
988
992
995
994
992
991
989
989
994
997
998
993
991
995
997
996
991
992
994
998
999
996
994
992
995
998
999
998
994
994
991
997
1000
997
995
993
996
998
1000
1000
998
999
1001
1001
1005
1002
998
996
997
999
1001
1000
999
998
1000
999
1003
1004
998
999
1000
1001
1003
1004
1003
1001
1005
1004
1009
1008
1004
1003
1002
1006
1012
1013
1014
1015
1016
1019
1023
1023
1022
1017
1020
1024
1031
1035
1037
1037
1040
1042
1043
1039
1035
1031
1027
1028
1028
1026
1026
1019
1015
1010
1011
1004
1000
997
996
997
1002
1000
1000
1000
1000
1002
1007
1005
1006
1004
1006
1006
1009
1011
1011
1008
1002
998
1003
1022
1053
1092
1135
1171
1183
1154
1092
1028
995
990
998
1006
1009
1013
1014
1013
1012
1009
1007
1004
1010
1012
1013
1013
1010
1009
1010
1012
1016
1016
1014
1013
1013
1016
1019
1018
1015
1011
1014
1018
1019
1017
1018
1014
1015
1016
1022
1018
1019
1017
1018
1022
1023
1023
1017
1017
1021
1025
1027
1025
1019
1019
1020
1019
1026
1023
1022
1022
1020
1023
1025
1023
1020
1016
1019
1022
1024
1021
1016
1016
1015
1017
1017
1015
1016
1014
1013
1013
1017
1014
1009
1007
1007
1009
1009
1007
1002
1000
1001
1003
1005
1004
1000
996
999
1000
1002
1001
999
995
998
999
1004
1002
999
997
997
998
1003
1003
1002
999
997
1000
1006
1005
1004
1001
1000
1006
1007
1008
1007
1006
1004
1007
1010
1008
1008
1003
1004
1009
1013
1012
1010
1008
1009
1015
1018
1017
1013
1014
1012
1016
1018
1016
1014
1013
1015
1019
1023
1021
1020
1018
1019
1022
1023
1023
1021
1022
1023
1024
1025
1025
1021
1021
1021
1024
1027
1028
1027
1024
1026
1026
1028
1025
1026
1023
1023
1025
1030
1029
1026
1024
1026
1028
1032
1032
1031
1030
1030
1035
1037
1036
1038
1037
1037
1042
1045
1048
1050
1050
1057
1072
1082
1087
1086
1085
1083
1085
1082
1075
1069
1065
1067
1068
1065
1055
1045
1036
1029
1029
1030
1026
1022
1018
1017
1020
1021
1023
1020
1019
1020
1021
1023
1023
1021
1018
1021
1021
1027
1027
1026
1023
1019
1009
1004
1002
1017
1045
1085
1130
1163
1170
1138
1080
1028
1001
999
1004
1015
1025
1032
1032
1034
1028
1025
1025
1026
1030
1029
1030
1031
1026
1024
1032
1034
1034
1035
1031
1028
1029
1031
1032
1029
1027
1029
1029
1031
1032
1030
1028
1029
1031
1032
1030
1027
1027
1030
1033
1035
1034
1032
1025
1028
1032
1035
1036
1034
1030
1031
1033
1035
1036
1032
1029
1030
1031
1034
1034
1032
1033
1034
1034
1038
1037
1035
1030
1031
1035
1036
1033
1027
1026
1026
1028
1030
1029
1023
1022
1022
1024
1021
1021
1015
1013
1011
1015
1017
1019
1017
1014
1015
1015
1021
1019
1017
1015
1011
1010
1013
1013
1010
1009
1010
1013
1015
1014
1011
1007
1009
1010
1017
1014
1010
1010
1013
1014
1018
1017
1013
1011
1013
1015
1016
1013
1012
1011
1014
1015
1020
1015
1015
1013
1015
1020
1020
1019
1017
1016
1019
1016
1021
1018
1017
1014
1017
1018
1022
1021
1018
1013
1018
1020
1021
1020
1021
1020
1021
1025
1022
1023
1019
1015
1018
1020
1020
1020
1021
1019
1020
1021
1019
1016
1017
1018
1023
1027
1024
1022
1019
1016
1016
1020
1023
1024
1022
1021
1025
1027
1025
1022
1018
1019
1019
1022
1023
1024
1022
1019
1017
1019
1023
1020
1018
1017
1018
1019
1021
1020
1019
1014
1015
1017
1023
1020
1018
1018
1020
1024
1028
1027
1027
1027
1028
1036
1044
1051
1055
1056
1067
1073
1074
1074
1071
1069
1067
1068
1065
1060
1054
1048
1042
1033
1028
1023
1021
1018
1017
1022
1023
1020
1015
1014
1017
1020
1027
1026
1026
1024
1025
1028
1031
1030
1024
1024
1021
1014
1008
1002
1006
1025
1056
1102
1147
1174
1171
1127
1066
1023
1008
1012
1025
1037
1043
1049
1047
1042
1039
1036
1037
1039
1042
1044
1044
1040
1037
1038
1042
1043
1038
1034
1035
1038
1039
1041
1039
1036
1038
1040
1042
1041
1035
1035
1038
1040
1047
1046
1042
1040
1042
1043
1046
1046
1043
1042
1043
1047
1046
1046
1040
1038
1038
1039
1044
1045
1044
1040
1039
1040
1044
1041
1037
1037
1036
1041
1044
1045
1039
1039
1038
1042
1040
1036
1033
1030
1030
1030
1027
1025
1021
1019
1024
1027
1031
1027
1024
1021
1022
1022
1023
1022
1016
1013
1013
1013
1012
1010
1009
1010
1017
1021
1023
1024
1022
1019
1016
1016
1020
1017
1017
1015
1020
1022
1026
1027
1027
1024
1023
1029
1032
1032
1028
1024
1024
1028
1033
1032
1027
1027
1023
1031
1032
1033
1033
1028
1026
1030
1032
1032
1030
1026
1029
1031
1033
1037
1039
1036
1040
1041
1043
1041
1039
1037
1038
1041
1042
1037
1035
1032
1035
1035
1040
1037
1034
1032
1032
1036
1036
1036
1035
1036
1043
1048
1050
1046
1038
1035
1033
1034
1039
1037
1036
1037
1040
1039
1043
1043
1036
1034
1033
1037
1040
1041
1038
1039
1042
1047
1051
1056
1052
1051
1052
1057
1064
1069
1071
1077
1082
1088
1093
1089
1085
1080
1077
1077
1075
1073
1069
1068
1065
1059
1053
1044
1036
1031
1026
1027
1025
1022
1017
1013
1015
1019
1023
1022
1023
1021
1020
1021
1021
1018
1017
1019
1022
1026
1025
1019
1015
1013
1011
1017
1038
1078
1125
1167
1206
1219
1210
1167
1102
1046
1016
1011
1016
1020
1021
1022
1019
1022
1025
1023
1019
1018
1018
1019
1020
1021
1013
1015
1020
1020
1022
1019
1018
1015
1017
1020
1021
1021
1017
1017
1017
1018
1020
1023
1021
1016
1020
1021
1023
1023
1021
1019
1020
1021
1025
1025
1024
1023
1022
1025
1023
1023
1021
1022
1019
1025
1028
1027
1025
1024
1022
1021
1027
1027
1025
1023
1025
1027
1030
1030
1029
1028
1030
1028
1030
1031
1029
1026
1027
1026
1029
1028
1026
1023
1023
1024
1023
1023
1019
1018
1019
1016
1020
1019
1014
1011
1013
1010
1013
1009
1005
1000
1002
1007
1009
1011
1009
1004
1002
1002
1007
1005
1006
1002
1004
1002
1002
1003
1002
1001
1002
1007
1008
1005
1006
1006
1004
1008
1010
1009
1009
1006
1006
1008
1011
1008
1008
1005
1006
1006
1010
1010
1006
1003
1001
1004
1007
1010
1006
1007
1005
1005
1010
1008
1007
1007
1007
1007
1009
1009
1007
1006
1006
1008
1011
1012
1011
1007
1008
1010
1011
1012
1010
1010
1013
1014
1017
1015
1010
1008
1008
1009
1013
1010
1008
1005
1007
1011
1013
1011
1011
1011
1011
1013
1014
1012
1011
1008
1010
1014
1014
1012
1008
1007
1009
1013
1014
1016
1009
1004
1005
1009
1009
1009
1010
1009
1011
1011
1016
1018
1015
1011
1012
1012
1014
1014
1011
1008
1010
1012
1014
1013
1011
1010
1009
1011
1016
1014
1010
1010
1012
1014
1017
1014
1015
1013
1011
1013
1017
1020
1014
1011
1009
1010
1012
1017
1013
1008
1011
1013
1016
1017
1015
1012
1011
1012
1012
1011
1009
1008
1009
1010
1012
1012
1008
1008
1007
1007
1011
1010
1005
1004
1006
1008
1009
1009
1004
1003
1006
1010
1012
1011
1006
1005
1003
1005
1006
1005
1001
1002
1006
1007
1009
1007
1004
1000
1000
999
1000
1000
998
999
1001
1004
1004
1004
1000
1001
1000
999
1002
998
999
995
995
999
1003
1001
998
995
995
998
999
1000
995
992
993
997
1002
1001
1000
998
1000
996
999
999
996
993
992
996
1000
999
999
996
995
995
998
998
997
994
994
999
999
999
995
995
996
998
999
997
995
992
992
996
997
996
991
991
993
995
997
997
989
987
991
994
996
998
993
991
993
996
996
997
996
992
994
994
996
993
991
988
993
994
997
996
994
989
989
989
995
995
993
989
991
993
995
996
992
991
994
995
999
997
993
992
994
1000
1004
1001
1001
1001
1007
1012
1018
1022
1022
1021
1023
1031
1037
1034
1030
1027
1027
1029
1027
1021
1018
1016
1017
1014
1010
1004
996
990
989
988
989
987
985
985
986
986
988
991
989
985
985
989
992
991
990
990
991
995
994
995
992
988
980
977
983
998
1024
1060
1098
1136
1167
1175
1157
1111
1054
1008
983
973
972
975
983
990
994
991
986
982
984
985
987
987
987
986
985
988
989
988
987
986
986
991
994
991
989
987
987
990
989
990
989
988
989
992
996
993
991
990
992
993
994
994
993
989
992
993
995
995
993
992
991
993
994
994
990
990
988
992
993
993
992
992
994
994
997
994
992
992
992
996
998
1000
1001
998
995
997
998
997
997
999
997
1001
1007
1006
1008
1008
1013
1015
1020
1015
1011
1004
1003
1004
1006
1001
998
993
990
992
996
997
992
985
979
978
973
971
966
966
965
966
966
965
956
955
955
961
962
958
955
954
952
953
958
957
955
953
951
956
958
958
954
952
957
962
964
965
960
955
961
964
965
962
964
961
964
966
968
968
963
959
960
966
972
971
969
967
967
970
974
972
971
967
963
968
970
971
965
966
967
970
970
967
957
949
937
925
924
926
928
937
964
1008
1053
1083
1089
1068
1023
974
951
944
957
970
978
982
988
986
983
979
978
981
983
984
981
977
980
982
984
984
981
981
981
984
987
986
982
981
985
985
987
987
983
978
982
986
992
989
989
987
988
990
992
990
987
987
990
991
993
991
988
988
992
994
996
996
992
990
991
993
994
992
989
988
990
991
991
992
987
988
987
989
989
987
983
980
979
976
976
973
970
967
967
969
968
966
963
958
960
963
965
962
957
955
955
959
960
960
957
957
959
960
960
957
956
956
958
959
964
964
961
958
961
961
965
966
964
962
963
966
969
968
966
966
965
967
971
970
963
960
965
968
972
972
968
965
965
967
971
974
970
967
968
971
974
974
972
970
968
971
970
968
971
971
971
973
971
971
971
971
973
976
975
971
967
969
970
971
975
975
971
969
967
971
975
974
969
966
967
973
976
975
973
971
972
975
976
975
972
976
975
977
977
976
975
972
970
970
972
974
970
970
972
972
976
975
974
974
971
976
976
972
972
968
966
967
967
971
971
972
973
976
978
977
971
966
966
967
968
971
969
966
969
969
972
973
967
968
968
969
970
968
966
966
967
972
977
978
970
968
970
970
975
971
970
963
966
968
972
971
967
966
968
972
975
972
969
968
968
968
972
972
967
963
965
967
970
969
966
965
969
968
969
966
967
966
969
969
969
967
968
967
969
967
972
971
968
965
961
961
963
965
961
960
963
965
968
965
965
963
962
963
967
967
966
965
967
966
968
967
964
962
964
970
973
975
976
970
978
980
984
986
984
985
986
986
983
980
972
972
971
974
978
975
972
965
963
962
962
959
957
954
955
959
965
964
963
960
962
965
967
965
962
961
963
964
964
961
958
960
956
948
950
956
976
1006
1046
1083
1101
1089
1044
984
943
927
933
943
954
962
963
970
973
969
969
970
966
967
970
970
968
963
965
968
973
974
976
974
971
972
973
974
971
968
970
970
971
970
969
970
972
976
977
973
972
970
973
973
979
974
974
972
974
974
975
975
971
968
965
967
972
968
969
967
967
969
971
973
969
967
968
970
968
968
966
969
972
974
975
974
978
982
987
989
993
989
985
985
985
983
984
979
972
967
965
969
973
970
960
952
950
947
946
940
938
937
938
936
937
934
932
931
933
937
938
934
931
926
929
933
933
934
930
929
932
935
937
934
936
933
936
941
944
945
942
941
942
942
946
944
946
944
947
948
952
948
944
945
946
950
951
950
945
937
928
921
921
928
943
971
1018
1070
1118
1141
1134
1099
1045
999
977
973
975
976
975
974
969
964
963
962
963
964
964
965
961
957
960
961
964
963
963
959
963
965
968
967
961
961
962
964
966
967
966
965
963
968
966
963
964
962
967
968
966
967
964
966
965
968
969
968
967
966
969
969
969
968
967
965
966
968
968
966
966
962
962
963
964
961
957
955
955
956
956
953
950
944
944
946
949
948
945
945
942
945
950
951
947
945
948
953
953
956
956
956
957
959
963
963
961
958
959
965
968
967
965
965
969
969
973
974
971
971
973
977
980
980
980
977
979
982
982
983
981
979
981
983
988
987
983
982
985
986
989
990
984
983
983
985
988
987
983
981
984
986
987
988
984
985
985
989
992
989
987
984
985
988
991
985
986
985
985
988
989
992
988
987
988
991
994
994
992
988
989
990
994
992
990
986
987
993
994
994
988
989
992
994
994
991
990
986
989
991
996
995
991
990
988
991
995
993
993
991
991
993
996
990
992
992
993
995
999
997
995
992
994
998
998
998
994
994
995
999
1000
1001
998
997
997
998
1001
999
996
992
995
999
1003
1003
999
998
1000
1001
1003
1003
999
999
1000
1000
1004
1002
997
998
998
1002
1004
1003
1000
998
998
1001
1004
1003
1000
999
999
1002
1003
1006
1004
1002
1004
1004
1009
1010
1005
1007
1010
1011
1016
1015
1013
1015
1020
1022
1026
1025
1025
1026
1023
1026
1026
1019
1013
1010
1011
1013
1016
1015
1008
998
997
996
998
995
990
990
992
995
999
997
998
1000
997
1002
1005
1004
1004
1005
1008
1012
1016
1016
1018
1017
1018
1029
1050
1078
1116
1149
1185
1209
1214
1182
1126
1063
1022
1004
1001
1000
1000
999
999
1003
1001
1003
999
996
998
1000
1002
1002
1001
998
999
1000
1004
1004
1001
1001
1003
1003
1008
1005
1003
1001
1004
1005
1008
1007
1007
1005
1008
1010
1013
1012
1012
1010
1011
1012
1014
1015
1014
1011
1012
1014
1017
1018
1014
1011
1010
1015
1016
1015
1012
1010
1011
1013
1020
1020
1016
1016
1016
1020
1025
1024
1023
1025
1024
1027
1032
1031
1029
1031
1036
1040
1047
1050
1045
1040
1040
1040
1037
1031
1033
1029
1031
1030
1034
1031
1025
1024
1025
1022
1017
1010
1004
998
995
996
998
995
988
987
986
986
989
988
984
981
979
981
984
983
983
982
983
986
988
987
984
987
989
992
992
993
990
989
993
993
997
998
995
992
995
998
1004
1005
1002
1002
1002
1006
1009
1007
1005
1004
1001
995
985
979
979
996
1021
1051
1091
1138
1177
1201
1207
1183
1136
1090
1055
1042
1045
1047
1050
1043
1034
1027
1025
1028
1031
1032
1030
1028
1031
1034
1030
1031
1027
1023
1023
1025
1025
1023
1022
1020
1018
1021
1022
1020
1017
1013
1015
1016
1015
1014
1012
1011
1009
1012
1012
1012
1005
1006
1001
1006
1009
1006
1006
1004
1004
1005
1008
1006
1004
1002
1004
1006
1007
1006
1005
1003
1002
1001
1006
1004
1000
997
1000
998
999
999
996
992
990
995
991
989
982
981
983
986
988
986
983
985
986
990
993
993
992
994
999
1002
1008
1014
1013
1014
1012
1014
1016
1014
1011
1010
1011
1018
1017
1014
1006
1001
1003
1005
1008
1008
1005
1003
1007
1011
1014
1013
1009
1010
1009
1010
1013
1011
1008
1005
1008
1008
1006
1005
1003
1001
999
1005
1005
1006
1004
1002
1002
1006
1008
1009
1005
1003
1004
1006
1013
1010
1008
1007
1009
1009
1013
1013
1012
1009
1009
1010
1015
1014
1013
1014
1017
1020
1026
1030
1031
1029
1030
1033
1035
1032
1030
1027
1028
1032
1037
1040
1038
1031
1027
1024
1032
1055
1093
1139
1183
1209
1204
1159
1093
1043
1014
1011
1028
1035
1033
1021
1018
1016
1015
1014
1013
1011
1011
1009
1013
1012
1012
1009
1012
1015
1017
1020
1017
1010
1014
1020
1021
1018
1017
1017
1018
1022
1024
1026
1025
1023
1023
1028
1032
1036
1035
1034
1037
1043
1043
1042
1039
1037
1038
1043
1040
1043
1040
1039
1043
1046
1053
1050
1045
1044
1042
1043
1043
1040
1039
1035
1034
1033
1034
1033
1029
1033
1032
1036
1034
1029
1026
1024
1024
1024
1023
1021
1015
1013
1012
1011
1011
1003
1001
1000
999
999
1004
1000
997
994
992
995
997
997
995
994
995
1000
1001
1003
1004
1000
1000
1003
1006
1003
1000
1002
1002
1000
1004
1003
1000
1001
1004
1007
1009
1007
1005
1002
1005
1006
1008
1007
1006
1001
1005
1006
1008
1008
1003
1001
1004
1002
1007
1008
1005
1002
1001
1004
1007
1004
998
991
986
981
971
962
968
989
1025
1075
1122
1161
1182
1179
1148
1100
1053
1022
1009
1010
1022
1029
1033
1026
1018
1011
1007
1006
1006
1005
1000
997
994
995
995
999
996
997
995
1004
1006
1014
1012
1016
1015
1018
1017
1017
1013
1015
1016
1024
1025
1026
1025
1024
1026
1028
1031
1030
1023
1021
1020
1025
1026
1023
1024
1022
1024
1027
1029
1030
1028
1024
1028
1028
1030
1027
1029
1026
1026
1029
1029
1028
1022
1022
1022
1023
1023
1021
1020
1015
1016
1017
1017
1015
1009
1007
1004
1007
1010
1008
1008
1005
999
1000
997
994
990
985
985
984
984
980
973
972
974
975
977
975
971
970
970
974
979
976
981
981
990
990
996
995
991
986
984
992
992
989
986
984
986
991
995
996
995
991
991
993
994
994
993
992
993
998
998
997
992
993
993
997
999
998
995
995
996
1000
1002
1002
997
995
999
1003
1002
1002
999
997
996
998
995
996
997
992
1000
1001
1002
1001
995
992
991
994
994
990
989
987
986
991
997
996
992
992
988
991
994
995
994
995
999
1008
1013
1013
1010
1008
1009
1011
1010
1008
1006
1007
1009
1011
1013
1013
1011
1009
1009
1011
1009
1007
1005
1004
1004
1006
1009
1007
1004
1001
1002
1006
1008
1006
1002
1001
1005
1005
1005
1004
999
1001
1000
1003
1007
1007
1003
1001
1002
1004
1008
1009
1002
1004
1005
1005
1009
1007
1004
997
998
998
998
995
989
987
987
991
993
990
988
989
991
995
999
1000
1001
1001
1004
1006
1016
1016
1016
1017
1018
1022
1023
1024
1021
1021
1021
1022
1025
1026
1025
1024
1023
1022
1025
1021
1015
1010
1014
1034
1065
1102
1138
1167
1188
1192
1167
1114
1057
1014
997
998
1009
1015
1014
1009
1007
1005
1009
1007
1004
1003
1004
1005
1006
1008
1006
1005
1007
1009
1010
1009
1006
1006
1008
1006
1005
1003
998
991
992
989
986
982
976
977
976
979
985
987
993
995
1003
1010
1012
1012
1007
1012
1017
1022
1022
1023
1022
1020
1025
1029
1029
1028
1023
1018
1013
1016
1017
1018
1018
1014
1016
1018
1019
1015
1015
1013
1012
1014
1015
1012
1008
1006
1009
1010
1009
1009
1007
1004
1006
1008
1004
1004
996
996
997
997
1000
996
992
988
988
990
987
987
982
981
982
979
979
978
974
972
973
976
977
974
971
966
964
964
965
957
951
949
948
947
944
944
937
937
938
940
944
947
948
952
960
966
973
977
975
979
983
989
995
993
993
995
1000
1004
1009
1005
1005
1003
1003
1004
1004
1000
990
979
974
979
993
1014
1039
1070
1109
1151
1185
1202
1192
1151
1106
1063
1043
1031
1026
1025
1021
1016
1009
1004
994
992
991
994
993
993
990
985
989
990
990
985
984
980
980
977
983
977
973
969
969
970
969
964
958
953
954
954
955
953
952
949
952
957
958
961
959
959
967
974
982
984
987
988
987
994
997
997
990
987
989
993
995
994
995
995
997
1002
1005
1004
998
1001
998
998
998
994
990
987
988
988
987
983
981
976
978
977
978
975
974
968
969
968
972
971
969
968
968
970
973
970
968
966
970
974
974
973
969
967
965
960
958
961
980
1008
1043
1076
1110
1145
1179
1195
1187
1147
1093
1040
1007
997
996
988
983
971
962
958
960
966
971
974
976
981
988
992
991
992
992
992
991
991
994
996
995
995
995
999
1000
1000
1001
1000
1000
999
1004
1002
1001
995
998
1000
1004
1001
997
996
997
994
999
1002
996
993
993
994
997
993
990
989
989
988
986
985
982
978
981
983
982
980
974
970
971
970
969
966
958
956
957
954
958
952
949
946
945
947
946
944
940
934
933
937
939
936
934
937
935
940
942
944
944
945
953
957
964
966
968
976
985
989
992
995
992
993
997
1002
1007
1008
1009
1008
1012
1014
1016
1012
1012
1011
1013
1017
1019
1018
1015
1010
1013
1016
1016
1018
1016
1012
1015
1015
1020
1019
1017
1014
1018
1021
1020
1019
1016
1015
1018
1018
1018
1016
1016
1014
1017
1017
1019
1016
1013
1009
1003
1001
999
1002
1016
1046
1086
1129
1168
1187
1188
1158
1114
1065
1024
996
985
985
989
992
988
983
976
972
972
975
976
978
972
975
981
986
992
999
1000
1004
1015
1020
1026
1028
1028
1027
1031
1035
1034
1032
1029
1032
1033
1034
1037
1037
1034
1031
1033
1037
1038
1037
1037
1037
1040
1046
1047
1045
1044
1043
1047
1048
1053
1055
1050
1049
1050
1054
1054
1053
1050
1047
1052
1056
1057
1053
1048
1047
1047
1049
1047
1045
1042
1039
1038
1039
1039
1034
1030
1028
1024
1025
1023
1023
1017
1016
1015
1012
1006
1003
999
994
992
989
984
980
976
971
971
973
973
972
970
970
973
981
984
991
991
996
1002
1008
1014
1015
1012
1013
1015
1021
1020
1020
1017
1015
1017
1021
1023
1016
1016
1014
1015
1017
1017
1019
1014
1015
1019
1020
1021
1020
1019
1019
1020
1023
1023
1021
1019
1016
1020
1020
1022
1020
1020
1013
1015
1020
1018
1016
1014
1015
1013
1013
1020
1016
1014
1012
1014
1019
1020
1015
1012
1007
1004
1000
992
981
974
976
993
1023
1061
1100
1129
1148
1149
1117
1070
1020
986
973
981
999
1015
1021
1021
1019
1023
1028
1030
1031
1030
1031
1031
1035
1041
1037
1036
1035
1036
1040
1040
1038
1036
1037
1038
1041
1039
1042
1039
1040
1040
1046
1044
1043
1042
1041
1045
1048
1049
1046
1046
1046
1047
1050
1054
1053
1051
1051
1054
1055
1056
1056
1051
1050
1052
1053
1055
1052
1052
1047
1049
1051
1054
1052
1050
1048
1048
1044
1047
1045
1039
1037
1038
1035
1033
1027
1024
1019
1016
1008
1005
998
992
987
990
989
987
982
974
975
976
983
986
991
995
997
1006
1016
1021
1022
1021
1019
1024
1025
1027
1023
1019
1020
1017
1020
1021
1021
1019
1014
1014
1018
1019
1018
1020
1020
1018
1020
1021
1021
1017
1017
1020
1023
1023
1022
1017
1018
1023
1023
1024
1023
1022
1019
1020
1023
1020
1019
1018
1019
1020
1023
1022
1020
1016
1015
1020
1022
1023
1021
1017
1013
1014
1017
1019
1014
1011
1009
1009
1009
1005
999
995
990
989
984
983
979
972
969
970
968
970
968
965
967
973
978
987
992
993
999
1011
1019
1022
1022
1019
1020
1020
1023
1025
1026
1026
1022
1022
1023
1022
1022
1021
1016
1019
1020
1019
1023
1021
1022
1023
1024
1027
1026
1022
1016
1013
1009
1008
1017
1038
1070
1105
1145
1167
1171
1139
1079
1023
996
993
1000
1008
1016
1019
1019
1014
1008
1006
1004
1005
1010
1010
1006
1002
1004
1003
1003
1006
999
998
994
996
997
997
988
984
973
970
970
969
970
966
964
963
961
964
969
974
977
984
991
996
1005
1011
1018
1020
1026
1031
1034
1037
1038
1039
1038
1038
1038
1033
1033
1031
1034
1038
1038
1033
1034
1035
1038
1037
1034
1030
1027
1030
1034
1033
1036
1032
1028
1030
1029
1033
1030
1025
1022
1021
1021
1020
1018
1015
1014
1014
1012
1015
1011
1007
1003
1005
1005
1005
1003
1000
998
998
999
999
996
988
985
987
988
986
985
977
973
971
972
967
965
958
954
952
956
955
951
950
946
944
945
947
948
945
950
959
967
973
981
983
984
990
992
998
1000
999
998
999
1005
1007
1006
1002
1003
1002
1003
1004
1003
998
1000
1002
1006
1004
1004
1001
1000
1001
1003
1008
1006
1004
1005
1004
1008
1006
1006
1003
1001
1001
1008
1004
1004
1000
998
999
1000
1003
1005
1003
999
1001
1004
1007
1003
999
999
1001
999
997
986
974
961
961
977
1007
1049
1091
1121
1133
1112
1061
998
956
936
941
953
970
981
987
991
993
994
991
986
986
987
996
999
1003
1008
1006
1008
1012
1015
1016
1013
1013
1012
1010
1015
1018
1014
1010
1011
1012
1016
1016
1014
1014
1014
1016
1017
1021
1020
1016
1016
1017
1020
1024
1023
1021
1018
1023
1027
1026
1024
1024
1022
1023
1028
1029
1027
1023
1022
1023
1023
1026
1025
1021
1016
1018
1021
1024
1018
1018
1013
1014
1013
1013
1011
1006
1001
1004
1002
1003
998
996
991
990
992
987
983
978
973
970
973
975
976
972
972
974
980
983
985
984
987
990
998
1004
1006
1005
1006
1010
1017
1017
1013
1009
1006
1008
1011
1012
1011
1009
1005
1009
1016
1016
1016
1015
1014
1016
1019
1022
1022
1017
1018
1018
1022
1021
1019
1020
1022
1026
1026
1027
1025
1023
1023
1023
1029
1027
1025
1023
1023
1025
1028
1027
1025
1021
1021
1021
1025
1023
1017
1008
1003
998
1004
1024
1057
1095
1138
1173
1190
1170
1113
1046
1002
982
984
990
995
994
991
987
986
985
981
977
979
981
988
991
992
996
1001
1011
1023
1033
1037
1041
1043
1048
1050
1049
1043
1042
1041
1045
1048
1045
1042
1040
1039
1043
1044
1047
1044
1042
1045
1047
1047
1051
1050
1048
1048
1049
1054
1056
1053
1052
1049
1053
1057
1056
1054
1050
1051
1050
1055
1056
1051
1050
1047
1049
1048
1049
1047
1046
1042
1040
1037
1038
1037
1032
1029
1030
1030
1026
1021
1018
1017
1015
1016
1012
1011
1007
1008
1006
1004
1002
998
992
986
987
986
983
981
976
972
972
972
974
975
974
978
986
993
1004
1008
1013
1018
1026
1032
1034
1032
1029
1031
1028
1034
1034
1033
1029
1028
1029
1029
1032
1030
1030
1028
1030
1030
1031
1030
1026
1028
1034
1035
1035
1033
1032
1032
1034
1038
1038
1036
1032
1030
1029
1033
1033
1036
1032
1030
1033
1033
1034
1035
1034
1028
1029
1035
1037
1032
1028
1023
1018
1014
1013
1027
1054
1093
1141
1184
1206
1202
1158
1091
1031
998
987
990
998
998
1000
997
994
991
987
988
991
994
1001
1006
1008
1012
1019
1031
1037
1042
1044
1045
1048
1048
1049
1050
1049
1047
1050
1050
1050
1047
1044
1048
1051
1054
1052
1052
1047
1049
1053
1057
1059
1059
1056
1058
1059
1064
1066
1065
1064
1061
1065
1069
1071
1072
1066
1063
1067
1068
1065
1064
1063
1058
1060
1064
1065
1064
1058
1054
1053
1054
1055
1052
1051
1048
1044
1044
1041
1037
1034
1034
1033
1033
1029
1021
1014
1005
1004
1002
997
994
990
984
987
985
984
981
978
975
981
987
998
1005
1010
1019
1026
1034
1041
1042
1042
1039
1040
1041
1042
1039
1040
1036
1036
1037
1035
1035
1034
1034
1035
1038
1039
1038
1035
1033
1036
1039
1039
1041
1039
1035
1035
1036
1040
1038
1033
1035
1036
1039
1043
1040
1036
1034
1037
1038
1038
1035
1034
1034
1034
1037
1039
1037
1033
1033
1032
1037
1035
1031
1029
1028
1028
1029
1024
1017
1001
990
987
999
1029
1070
1105
1140
1160
1148
1098
1036
989
974
980
998
1012
1024
1028
1032
1034
1040
1040
1048
1047
1049
1048
1050
1052
1051
1052
1051
1050
1053
1051
1051
1050
1050
1053
1056
1056
1055
1055
1054
1057
1059
1062
1062
1061
1059
1064
1068
1070
1066
1064
1060
1067
1069
1074
1070
1067
1065
1066
1072
1069
1070
1065
1065
1065
1070
1069
1069
1064
1064
1063
1065
1064
1058
1052
1051
1049
1051
1048
1042
1038
1031
1024
1024
1020
1015
1010
1006
1003
1003
1002
998
997
998
1002
1008
1010
1011
1015
1021
1025
1034
1033
1032
1034
1033
1034
1039
1039
1035
1031
1029
1030
1033
1034
1027
1029
1027
1027
1030
1030
1028
1025
1024
1023
1030
1033
1032
1031
1027
1029
1031
1032
1030
1025
1028
1031
1032
1030
1027
1025
1023
1026
1028
1032
1029
1024
1023
1023
1028
1030
1026
1024
1022
1024
1027
1029
1027
1024
1024
1022
1026
1029
1027
1023
1023
1021
1019
1018
1013
1005
999
999
1002
998
997
990
991
992
999
1007
1014
1014
1008
1005
1011
1027
1057
1101
1148
1187
1214
1217
1196
1151
1097
1053
1028
1023
1024
1035
1040
1047
1047
1048
1042
1040
1037
1039
1040
1039
1038
1038
1036
1040
1043
1043
1045
1042
1042
1041
1047
1048
1046
1047
1045
1048
1052
1051
1049
1048
1045
1048
1050
1053
1052
1051
1047
1051
1051
1053
1054
1050
1052
1055
1058
1057
1055
1054
1051
1051
1055
1057
1059
1054
1051
1052
1055
1055
1052
1048
1043
1042
1039
1035
1027
1020
1015
1014
1014
1011
1009
1003
1000
999
1000
1003
1002
1004
1008
1020
1027
1034
1039
1039
1038
1038
1042
1041
1042
1036
1033
1033
1033
1029
1024
1016
1016
1018
1021
1023
1018
1014
1011
1014
1018
1016
1018
1013
1014
1019
1021
1021
1019
1018
1017
1017
1019
1018
1018
1013
1011
1015
1020
1019
1019
1012
1011
1011
1011
1013
1012
1009
1009
1010
1011
1011
1011
1008
1009
1010
1013
1016
1013
1010
1005
1006
1002
996
978
959
952
963
995
1043
1091
1125
1143
1137
1101
1048
1000
971
959
967
978
986
983
978
975
976
985
992
1000
1002
1009
1013
1021
1022
1022
1017
1018
1020
1023
1023
1024
1020
1019
1022
1024
1022
1020
1019
1019
1021
1020
1023
1024
1024
1023
1024
1028
1028
1026
1025
1025
1030
1034
1034
1031
1029
1028
1031
1034
1034
1033
1028
1029
1031
1036
1035
1032
1031
1029
1023
1029
1028
1026
1022
1018
1020
1020
1018
1013
1011
1008
1007
1008
1006
1004
998
1000
996
995
990
985
975
972
969
964
962
958
955
952
952
954
952
949
946
946
945
949
954
957
959
964
975
981
988
991
988
990
995
1002
1005
1003
998
997
998
1005
1006
1001
1000
999
1002
1005
1006
1003
1001
997
999
1002
1005
1002
1002
1000
1004
1006
1006
1006
1005
1005
1008
1007
1007
1004
998
998
998
1001
1007
1006
1002
1001
998
1001
998
996
990
989
991
995
998
997
991
989
987
989
989
987
984
981
982
979
979
973
973
970
968
969
967
965
962
960
958
958
952
944
937
935
943
962
997
1039
1085
1121
1144
1146
1113
1061
1010
975
962
969
979
995
1005
1008
1013
1013
1012
1004
1005
1004
1006
1009
1010
1008
1008
1004
1005
1007
1012
1013
1011
1008
1006
1011
1016
1017
1016
1017
1016
1018
1016
1013
1010
1006
1006
1012
1015
1015
1015
1017
1015
1016
1017
1014
1014
1011
1013
1016
1015
1013
1005
1008
1009
1012
1013
1011
1008
1007
1007
1008
1007
1003
998
993
990
991
990
985
982
979
977
982
981
979
976
974
972
972
971
968
964
965
972
978
984
989
990
992
994
997
998
997
996
996
999
1002
1002
999
996
993
995
999
999
997
997
996
997
995
997
997
996
992
994
997
997
998
997
993
995
999
1004
1003
1002
999
1002
1008
1005
1006
1002
1002
1005
1008
1007
1006
1007
1007
1008
1013
1008
1007
1001
1001
1001
1005
1007
1003
1001
1000
1002
1005
1006
1003
1000
1001
1002
1002
999
995
991
986
988
988
985
979
974
971
972
976
972
971
963
964
966
971
971
971
966
966
967
973
983
1002
1028
1065
1113
1158
1193
1216
1215
1190
1138
1081
1040
1018
1013
1021
1031
1034
1032
1030
1026
1022
1023
1024
1022
1020
1019
1021
1020
1024
1027
1026
1025
1027
1029
1031
1032
1028
1027
1028
1032
1034
1035
1029
1028
1027
1031
1036
1037
1038
1034
1033
1036
1039
1038
1039
1036
1035
1037
1041
1040
1039
1035
1036
1039
1042
1044
1039
1036
1034
1036
1039
1038
1036
1032
1029
1031
1033
1032
1027
1021
1017
1017
1014
1009
1005
1001
998
997
996
996
994
989
986
989
988
988
989
990
993
1005
1012
1014
1016
1016
1019
1023
1026
1027
1023
1021
1016
1015
1020
1020
1015
1013
1010
1006
1010
1015
1013
1011
1010
1012
1015
1016
1015
1011
1013
1013
1021
1017
1016
1017
1016
1018
1020
1018
1019
1016
1015
1019
1022
1020
1018
1014
1013
1014
1020
1015
1017
1014
1014
1013
1016
1019
1014
1015
1013
1013
1015
1018
1018
1014
1015
1017
1020
1020
1018
1013
1014
1016
1015
1014
1014
1009
1006
1005
1001
994
982
976
980
1000
1033
1073
1109
1141
1171
1194
1196
1168
1115
1057
1021
1006
1015
1027
1036
1037
1040
1041
1040
1039
1038
1037
1039
1039
1043
1042
1041
1035
1035
1037
1039
1037
1040
1037
1036
1036
1040
1042
1043
1036
1036
1039
1044
1046
1043
1042
1042
1043
1045
1046
1048
1047
1045
1049
1054
1051
1053
1051
1053
1055
1058
1058
1056
1051
1053
1055
1055
1056
1053
1054
1053
1054
1055
1055
1055
1051
1050
1048
1051
1044
1044
1043
1041
1041
1041
1037
1035
1030
1028
1026
1022
1013
1005
997
993
991
992
987
984
975
974
976
977
978
980
975
979
985
997
1000
1003
1008
1013
1019
1024
1027
1028
1031
1034
1040
1038
1037
1033
1032
1034
1034
1038
1035
1034
1031
1031
1033
1036
1036
1033
1029
1028
1034
1037
1039
1034
1034
1031
1032
1037
1035
1037
1034
1034
1033
1035
1035
1032
1030
1031
1030
1030
1029
1028
1028
1024
1024
1029
1029
1026
1023
1022
1023
1025
1026
1022
1018
1014
1018
1020
1016
1012
1007
1006
1007
1007
1004
997
990
986
985
985
985
981
975
973
974
978
978
980
983
983
988
999
1005
1008
1018
1022
1027
1034
1037
1036
1034
1035
1034
1035
1036
1034
1032
1031
1032
1039
1038
1037
1037
1034
1040
1042
1043
1041
1039
1039
1040
1043
1041
1040
1038
1038
1038
1043
1042
1038
1034
1033
1035
1039
1038
1036
1032
1029
1028
1031
1033
1029
1027
1025
1029
1030
1028
1025
1021
1022
1022
1024
1024
1022
1017
1016
1015
1018
1011
1011
1004
1003
1004
998
996
989
984
982
982
982
978
976
974
973
973
978
981
984
987
994
1001
1012
1019
1025
1024
1028
1033
1036
1036
1036
1034
1033
1034
1037
1035
1032
1031
1030
1026
1032
1030
1028
1029
1030
1031
1037
1039
1036
1034
1036
1036
1040
1045
1042
1038
1037
1042
1045
1046
1045
1045
1047
1048
1048
1050
1065
1093
1130
1168
1199
1217
1206
1161
1096
1042
1019
1012
1011
1013
1015
1014
1018
1018
1013
1009
1007
1008
1008
1002
1001
996
994
991
994
990
983
979
976
975
977
977
973
971
975
981
987
994
998
1003
1011
1020
1032
1039
1042
1042
1042
1046
1051
1052
1048
1047
1049
1049
1050
1049
1046
1045
1046
1046
1049
1051
1049
1050
1047
1050
1051
1054
1054
1050
1050
1052
1057
1058
1056
1054
1054
1056
1060
1060
1059
1055
1056
1057
1058
1059
1055
1051
1048
1048
1044
1048
1045
1043
1038
1039
1039
1037
1035
1033
1029
1030
1030
1029
1023
1019
1018
1019
1018
1014
1006
997
996
994
994
989
983
975
975
973
973
971
967
962
962
962
967
969
972
973
980
987
994
1002
1010
1012
1018
1021
1028
1030
1030
1029
1028
1031
1032
1032
1028
1026
1026
1030
1032
1032
1030
1027
1028
1030
1031
1030
1030
1030
1028
1030
1032
1034
1033
1030
1028
1030
1032
1031
1028
1025
1023
1026
1026
1027
1030
1027
1025
1026
1030
1031
1029
1027
1023
1020
1015
1005
994
991
1005
1031
1073
1115
1149
1172
1165
1126
1070
1020
992
980
985
992
993
991
985
980
977
977
982
987
987
989
992
999
1005
1010
1014
1017
1023
1030
1034
1036
1036
1036
1038
1041
1045
1045
1044
1042
1041
1043
1044
1046
1047
1045
1044
1047
1049
1049
1048
1047
1049
1051
1056
1054
1052
1050
1049
1053
1057
1059
1058
1056
1057
1060
1059
1061
1057
1055
1055
1055
1056
1055
1052
1048
1046
1046
1046
1045
1041
1037
1034
1035
1034
1031
1027
1021
1018
1017
1017
1016
1012
1006
1002
996
995
993
987
978
974
971
972
972
967
961
959
959
963
965
965
968
975
980
992
995
1002
1006
1006
1009
1016
1016
1019
1017
1018
1020
1022
1024
1022
1019
1020
1019
1024
1025
1023
1020
1021
1023
1026
1026
1023
1024
1024
1023
1031
1031
1030
1028
1025
1030
1029
1023
1019
1007
994
986
994
1023
1068
1112
1154
1183
1187
1158
1107
1055
1027
1023
1030
1035
1031
1025
1019
1020
1021
1015
1012
1009
1006
1006
1007
1003
997
995
993
988
989
987
979
978
978
980
980
984
986
985
991
999
1006
1012
1021
1023
1027
1033
1036
1039
1038
1037
1039
1045
1049
1049
1047
1044
1044
1047
1050
1052
1052
1048
1050
1052
1053
1053
1051
1051
1049
1054
1056
1056
1055
1048
1047
1048
1050
1046
1041
1038
1037
1037
1035
1032
1032
1026
1026
1023
1026
1020
1019
1015
1015
1018
1018
1016
1012
1008
1007
1006
1008
1005
1001
999
998
997
996
995
988
981
973
975
976
973
970
964
960
960
961
962
961
962
965
970
978
984
987
992
1002
1007
1011
1012
1014
1014
1019
1022
1024
1028
1026
1025
1024
1026
1031
1031
1031
1026
1026
1032
1035
1035
1033
1028
1029
1029
1030
1031
1032
1028
1022
1017
1006
995
991
999
1025
1062
1106
1147
1172
1174
1151
1103
1056
1028
1019
1026
1034
1039
1037
1033
1028
1025
1024
1024
1028
1027
1025
1022
1021
1023
1025
1022
1017
1016
1015
1012
1010
1005
1001
995
988
986
987
986
982
980
976
980
986
992
998
1000
1006
1014
1023
1033
1039
1036
1038
1042
1047
1051
1054
1051
1052
1054
1059
1059
1055
1052
1053
1057
1062
1060
1057
1053
1052
1056
1057
1055
1053
1050
1048
1047
1050
1049
1046
1041
1040
1041
1042
1041
1037
1036
1030
1031
1031
1030
1026
1024
1021
1023
1025
1022
1020
1019
1018
1017
1018
1013
1011
1009
1008
1008
1008
1006
1001
997
996
995
994
989
982
977
975
977
971
969
966
961
956
960
963
965
968
968
972
977
982
988
991
996
1001
1003
1005
1006
1005
1005
1006
1008
1012
1009
1010
1009
1011
1012
1019
1014
1014
1014
1007
1012
1013
1012
1010
1008
1009
1012
1014
1016
1013
1009
1008
1011
1011
1005
995
981
968
969
978
1004
1035
1074
1113
1142
1146
1110
1054
1008
984
986
998
1006
1008
1006
1001
1001
1001
1001
997
996
997
999
1003
1003
1001
997
996
1000
1003
1004
1000
997
999
1000
1004
1001
1000
996
998
1000
1002
1003
1002
1000
1003
1006
1008
1008
1008
1005
1004
1005
1012
1011
1010
1009
1010
1009
1012
1016
1014
1010
1009
1010
1014
1014
1013
1011
1008
1013
1017
1016
1013
1010
1006
1008
1011
1013
1010
1006
1004
1003
1002
1000
993
992
988
997
995
995
991
987
985
985
982
985
983
978
980
980
984
985
980
976
975
975
979
976
976
971
970
972
975
974
971
972
970
976
980
980
975
970
972
974
977
977
973
971
968
970
976
975
973
968
972
975
978
979
976
975
971
974
981
978
976
971
973
977
983
979
979
975
975
976
977
979
977
974
973
975
981
982
979
975
978
978
977
979
977
975
975
977
980
980
979
976
978
976
978
974
973
970
970
977
977
977
977
972
974
978
979
979
973
974
973
977
979
978
976
971
971
973
974
975
973
971
975
975
978
978
976
974
972
974
975
973
976
972
968
971
971
970
967
970
971
971
973
975
974
971
971
972
974
974
973
970
971
973
979
977
974
968
970
972
975
975
975
970
969
971
976
976
974
972
973
971
978
974
977
975
975
977
978
980
979
977
979
982
981
981
979
977
976
978
985
984
982
982
982
985
987
986
985
981
985
988
988
990
989
990
989
993
995
1000
998
995
997
1003
1009
1006
1006
1004
1005
1007
1008
1006
1007
1001
1000
997
998
996
989
989
990
990
992
992
988
984
982
984
988
988
988
986
985
985
989
988
989
987
988
989
992
988
979
971
963
962
976
1000
1040
1086
1128
1150
1140
1088
1029
983
965
966
979
991
998
998
996
995
998
999
996
993
995
999
1000
999
999
1000
1001
1002
1005
1005
1001
1000
1005
1005
1009
1010
1007
1006
1006
1011
1016
1014
1011
1010
1010
1017
1019
1021
1016
1015
1018
1020
1021
1022
1021
1020
1020
1022
1025
1024
1024
1019
1021
1022
1026
1025
1025
1024
1024
1025
1027
1027
1027
1027
1027
1029
1032
1032
1031
1025
1029
1030
1032
1030
1030
1026
1029
1029
1028
1030
1025
1026
1023
1026
1026
1025
1020
1017
1016
1017
1020
1017
1016
1012
1011
1011
1015
1013
1012
1009
1008
1006
1008
1009
1005
1002
998
1000
1002
999
995
995
994
995
994
994
994
989
989
991
994
989
988
986
984
987
988
990
986
982
983
985
985
987
983
983
981
983
986
986
984
982
983
986
989
987
984
983
985
985
985
987
987
985
983
987
989
988
987
985
984
987
988
987
986
982
983
985
988
988
984
984
983
984
985
986
984
983
982
985
985
988
984
980
981
985
985
985
987
982
981
983
986
987
988
986
981
983
986
986
985
983
982
984
985
986
983
979
978
983
990
987
986
984
984
985
991
989
985
983
984
987
989
987
985
981
985
985
987
985
984
983
983
986
990
989
988
986
984
988
987
987
986
985
982
984
988
991
988
985
984
987
988
991
986
983
985
987
988
989
987
985
985
983
988
987
987
982
983
986
990
990
986
984
984
986
989
989
986
981
982
985
988
986
985
982
985
988
990
987
985
985
984
986
990
991
987
982
978
982
982
985
984
983
981
984
987
986
984
981
981
984
986
986
982
981
980
984
986
985
984
980
982
982
985
986
983
978
970
971
974
971
968
965
959
955
955
954
956
952
954
962
965
970
970
971
975
978
981
983
981
978
975
979
983
986
982
985
990
993
996
995
992
989
986
991
994
995
993
992
990
991
996
993
994
991
996
998
999
1002
999
995
992
997
1019
1051
1084
1112
1140
1167
1172
1147
1088
1027
980
964
967
977
982
984
985
987
987
987
985
980
982
988
990
990
986
984
986
988
989
991
989
988
988
991
994
996
993
989
995
996
999
1000
998
997
996
1000
1003
1001
1001
999
1000
1001
1003
1002
1000
999
1000
1004
1006
1005
1004
1000
1003
1002
1002
1007
1001
1002
1002
1006
1008
1008
1002
1001
1006
1010
1012
1012
1009
1006
1007
1011
1013
1013
1009
1006
1006
1010
1012
1010
1007
1002
1002
1004
1004
1004
1003
995
998
1000
1000
999
999
993
992
994
994
990
990
987
987
987
986
984
982
979
977
979
977
977
972
967
968
969
969
966
964
961
960
961
964
964
961
955
956
959
960
957
954
951
952
954
953
953
954
952
951
954
958
958
956
954
955
957
958
954
955
953
950
955
956
956
954
953
953
951
958
957
955
954
955
957
959
958
956
954
953
956
958
957
956
953
954
956
959
958
955
953
957
959
959
955
959
954
953
955
957
954
952
951
954
955
957
958
958
952
951
951
955
957
956
954
954
956
959
958
955
955
954
955
958
956
953
951
955
955
959
956
951
950
949
953
958
956
953
953
952
955
954
952
950
951
951
956
958
954
952
951
952
954
958
959
957
953
953
954
957
955
954
951
953
957
956
957
954
950
949
952
956
958
953
949
950
953
955
955
948
948
946
949
952
954
953
951
953
954
954
952
952
947
949
950
952
952
951
950
948
949
951
951
950
948
948
952
955
952
952
950
951
952
956
953
953
946
946
946
950
952
951
948
949
948
951
953
951
948
948
952
955
952
951
949
950
950
953
953
949
948
948
947
952
950
953
947
947
949
954
951
950
946
946
949
953
951
949
946
943
943
946
944
938
933
931
933
935
931
923
918
918
920
923
925
923
926
933
936
945
946
944
941
943
944
950
950
950
949
949
956
959
958
960
960
962
965
967
967
962
962
962
966
967
968
965
962
963
962
967
967
968
965
962
959
952
945
946
963
996
1039
1085
1122
1128
1098
1041
988
958
946
942
945
958
972
980
979
973
967
967
967
972
973
970
968
969
971
976
978
974
973
975
978
982
981
975
973
975
978
979
980
978
979
978
980
982
982
984
981
982
980
983
982
982
982
983
985
988
986
983
982
986
987
992
989
985
979
978
980
983
986
986
984
983
989
992
992
991
990
990
993
997
1002
999
996
998
995
997
996
995
992
990
994
993
993
989
988
986
986
991
988
986
984
983
984
984
983
981
978
977
982
982
983
982
979
978
977
982
981
980
979
979
979
980
978
975
973
975
978
976
979
979
975
977
977
981
979
975
973
972
975
978
979
978
979
979
981
983
983
978
974
974
979
983
982
980
977
977
982
986
987
984
983
981
983
988
986
981
978
981
983
988
988
986
983
982
982
984
989
985
985
983
986
989
990
988
986
985
985
985
987
988
984
983
987
988
989
986
986
984
985
988
990
990
988
990
990
993
991
989
988
984
985
987
988
988
985
986
990
993
992
990
988
988
992
994
993
989
990
989
992
992
995
989
990
988
991
990
991
989
987
988
991
993
993
990
988
988
989
993
989
989
984
985
990
993
993
989
986
985
988
990
991
988
987
985
990
992
990
985
985
988
989
991
989
988
985
984
984
989
988
984
983
984
985
989
984
982
985
983
984
985
985
983
979
975
983
985
982
976
972
972
976
980
978
975
974
973
972
977
977
972
973
973
975
975
976
975
977
979
980
980
976
974
970
973
974
974
972
968
967
970
973
975
974
973
970
970
972
976
975
972
973
973
974
975
974
974
972
972
972
976
972
971
970
970
967
973
971
968
966
963
968
968
971
969
969
969
973
974
970
969
967
970
971
974
972
970
969
969
970
971
971
968
970
970
971
967
963
955
952
950
951
951
948
944
939
938
943
946
949
952
952
955
957
965
963
966
964
963
966
970
971
970
971
973
977
984
984
981
976
972
975
981
980
980
978
979
980
985
982
979
976
976
977
986
987
985
979
976
974
983
1005
1030
1062
1093
1124
1148
1152
1120
1059
998
961
952
959
969
975
976
978
975
975
969
969
969
974
974
975
975
972
971
975
975
976
976
974
972
973
977
978
975
975
975
978
977
977
979
978
976
978
978
978
978
978
978
977
980
979
977
977
975
980
979
982
977
976
975
975
979
980
979
973
973
977
981
978
977
973
971
978
979
978
978
975
973
974
977
978
975
974
972
975
976
974
971
966
969
969
974
972
967
962
960
963
966
964
958
955
952
956
961
959
958
955
955
959
964
963
960
957
957
960
965
960
958
953
955
957
960
961
960
958
957
960
962
962
963
961
961
962
964
965
962
962
965
966
968
964
961
963
963
967
969
967
966
964
966
970
973
970
967
967
966
971
973
972
972
972
969
974
975
977
974
971
972
972
976
977
976
975
974
977
981
981
979
977
975
980
982
982
978
977
976
979
979
979
979
976
979
985
987
984
983
977
978
980
984
983
982
980
981
982
987
985
985
981
982
982
985
986
981
982
981
985
987
986
986
983
983
986
988
987
984
982
984
985
989
987
987
983
982
984
988
988
985
983
984
985
988
990
989
986
985
987
988
989
987
986
986
989
991
992
990
986
985
989
991
992
988
987
988
993
995
993
992
990
993
993
995
993
993
993
991
994
994
996
993
992
992
994
997
995
993
990
992
995
998
998
995
989
990
994
997
997
995
991
994
997
1001
1001
999
995
995
998
1001
999
1000
992
995
1001
1003
1000
998
995
996
996
998
997
993
995
995
996
999
999
996
994
994
996
999
997
996
994
994
996
1000
1000
995
995
994
997
999
995
993
990
990
995
999
999
997
996
994
997
1003
1002
999
996
995
997
1000
999
997
995
997
996
997
998
999
992
994
1000
1002
1000
994
995
994
996
999
999
997
991
993
997
1000
1000
998
999
995
1000
1001
1002
999
1000
998
1000
1006
1008
1006
1005
1009
1020
1027
1036
1038
1041
1042
1044
1047
1048
1042
1036
1031
1033
1032
1030
1024
1021
1012
1008
1008
1002
995
988
984
987
990
990
986
984
984
987
991
990
986
988
988
992
996
994
995
994
995
1000
1002
1005
1002
1007
1024
1057
1098
1138
1174
1195
1194
1156
1093
1032
995
979
980
983
989
988
985
981
979
981
986
985
985
982
986
988
989
988
986
985
985
988
989
989
986
983
983
989
989
988
985
984
984
986
991
991
991
988
987
989
995
997
992
987
991
992
994
991
993
988
993
994
996
995
990
990
994
995
995
995
993
993
996
998
999
1000
999
996
999
999
1004
1003
1000
999
999
1003
1005
1005
1004
1003
1001
1002
1003
1004
1004
1000
999
998
1002
1001
997
996
994
995
1000
997
994
991
993
992
990
990
988
985
985
990
991
988
988
984
982
981
987
983
981
981
980
981
982
981
978
975
976
979
984
982
977
977
975
978
983
982
980
980
979
982
982
985
981
979
980
981
985
986
986
984
984
986
988
987
985
983
983
986
989
989
986
987
986
989
991
991
990
988
988
988
993
991
990
986
987
990
994
994
991
989
989
991
994
995
990
989
992
992
994
992
992
988
989
993
992
993
990
989
991
993
992
991
991
986
987
990
993
993
990
985
988
990
993
994
991
988
985
986
992
991
987
984
987
989
990
988
988
985
986
988
986
985
982
980
983
985
986
985
984
983
984
986
985
983
982
976
976
980
980
981
977
976
977
980
982
981
977
974
974
979
978
980
979
976
975
974
976
975
973
970
974
976
978
975
971
969
968
973
973
973
971
970
972
973
973
972
968
969
968
973
975
973
967
963
968
971
975
975
973
969
970
972
977
980
980
979
980
979
981
984
981
980
980
985
989
994
996
998
1000
1006
1013
1011
1004
1000
996
997
995
992
990
986
982
979
977
973
969
967
965
965
969
968
966
964
965
969
973
970
971
967
967
970
972
972
974
967
959
949
947
957
987
1024
1069
1108
1120
1085
1007
944
924
935
955
972
975
973
970
971
976
972
971
968
970
975
976
976
970
969
971
971
973
975
972
972
971
973
973
973
969
969
967
972
975
976
973
972
972
977
976
976
970
969
972
973
977
978
972
969
973
975
977
977
973
970
967
972
974
975
972
972
973
970
973
970
970
972
973
973
972
973
970
969
971
972
975
973
970
968
968
968
971
969
962
960
956
958
961
962
958
954
950
952
955
957
953
952
951
956
958
960
959
956
954
958
963
962
959
956
957
958
960
958
956
958
958
964
968
966
963
959
957
959
965
964
964
961
962
964
968
968
967
962
964
966
972
972
968
966
968
969
973
970
971
967
970
971
975
971
971
971
971
975
978
976
975
971
972
976
978
980
980
977
976
978
981
978
977
977
976
981
984
984
981
981
982
986
987
986
983
980
979
983
988
988
985
982
983
987
989
988
986
985
984
989
992
988
991
985
987
987
990
987
988
989
986
990
991
988
987
988
989
990
992
993
989
987
990
990
991
990
990
989
989
993
995
995
992
988
991
995
996
996
993
989
992
992
996
995
994
991
992
990
997
994
995
991
992
998
1000
1001
995
993
994
997
1002
999
1001
1001
1001
1004
1009
1009
1007
1008
1008
1009
1010
1012
1010
1012
1016
1021
1025
1024
1027
1025
1026
1033
1032
1029
1025
1018
1016
1018
1022
1023
1017
1008
1002
1000
1000
997
991
991
992
992
995
993
989
988
990
996
997
997
996
995
997
999
1005
1003
998
989
985
986
993
1015
1042
1080
1121
1161
1188
1183
1142
1077
1020
993
986
990
993
999
1000
1003
1003
1001
997
997
997
1002
1003
1001
1002
998
1000
1003
1005
1002
1003
1002
1004
1004
1009
1008
1005
1004
1006
1009
1011
1009
1008
1006
1008
1010
1013
1013
1012
1006
1008
1011
1014
1011
1014
1012
1012
1015
1016
1014
1015
1014
1015
1016
1019
1019
1018
1015
1017
1022
1023
1023
1020
1016
1018
1019
1023
1023
1020
1017
1018
1018
1020
1020
1018
1016
1019
1020
1020
1019
1019
1015
1014
1015
1017
1015
1013
1010
1011
1012
1013
1012
1008
1005
1004
1006
1006
1007
1006
1002
1003
1007
1008
1006
1004
1003
1003
1005
1005
1004
1004
1004
1005
1008
1006
1006
1002
1002
1002
1006
1006
1004
1003
1001
1004
1006
1007
1006
1004
999
1002
1006
1011
1007
1005
1005
1007
1007
1011
1009
1006
1003
1006
1009
1011
1008
1006
1004
1007
1012
1015
1015
1012
1009
1010
1013
1013
1011
1009
1010
1011
1014
1014
1012
1010
1011
1010
1014
1015
1018
1015
1012
1010
1016
1018
1017
1013
1013
1014
1015
1016
1014
1011
1010
1014
1016
1018
1017
1014
1013
1018
1020
1018
1019
1017
1013
1014
1017
1022
1018
1017
1018
1019
1017
1022
1020
1017
1016
1017
1017
1018
1018
1020
1020
1017
1017
1017
1019
1015
1013
1015
1021
1023
1019
1017
1014
1016
1018
1023
1021
1019
1012
1017
1020
1020
1022
1020
1015
1018
1022
1023
1022
1016
1015
1016
1017
1024
1022
1018
1016
1016
1020
1020
1020
1017
1016
1016
1019
1021
1021
1018
1016
1016
1016
1020
1022
1020
1017
1015
1021
1024
1021
1019
1017
1020
1018
1020
1023
1020
1016
1017
1020
1021
1020
1017
1015
1017
1018
1022
1021
1017
1015
1017
1018
1023
1022
1021
1016
1017
1023
1027
1026
1022
1020
1020
1024
1024
1022
1019
1019
1023
1030
1033
1034
1034
1028
1030
1035
1037
1038
1041
1038
1039
1037
1039
1037
1031
1024
1021
1028
1033
1029
1023
1017
1016
1016
1012
1011
1006
1004
1007
1012
1015
1010
1006
1005
1010
1015
1021
1019
1019
1016
1017
1021
1026
1025
1024
1020
1017
1017
1016
1017
1037
1070
1112
1150
1183
1199
1184
1133
1071
1026
1004
997
997
1001
1008
1011
1015
1011
1007
1002
1003
1002
1003
1005
1006
1003
1007
1013
1015
1013
1006
1007
1009
1010
1014
1015
1011
1010
1008
1012
1014
1010
1008
1009
1011
1012
1011
1011
1010
1009
1011
1014
1014
1016
1013
1010
1011
1015
1016
1016
1015
1014
1014
1014
1018
1016
1014
1015
1013
1017
1016
1016
1013
1012
1015
1016
1017
1018
1013
1013
1013
1020
1022
1018
1018
1014
1018
1022
1022
1020
1016
1013
1011
1016
1018
1016
1014
1007
1010
1010
1012
1013
1009
1005
1005
1008
1010
1008
1008
1004
1004
1007
1006
1005
1002
1003
1003
1004
1007
1002
1002
996
1000
1001
1007
1007
1001
999
1002
999
1001
1001
998
996
996
1002
1002
1002
999
995
999
999
1001
1000
1000
998
1002
1001
1003
1000
997
997
1001
1004
1006
1004
998
998
997
1002
1004
1005
1000
1001
1001
1001
1002
999
1000
998
1001
1003
1007
1007
1004
1000
1002
1003
1009
1007
1006
1002
1002
1000
1003
1005
1003
1002
1001
1003
1007
1003
1003
1003
1002
1006
1008
1006
1004
1003
1002
1003
1007
1005
1003
1003
1003
1005
1006
1005
1004
1003
1007
1004
1010
1008
1008
1007
1009
1007
1008
1008
1006
1005
1006
1004
1007
1007
1005
1003
1007
1011
1009
1008
1005
1004
1005
1009
1010
1009
1006
1002
1005
1011
1014
1014
1012
1007
1009
1011
1017
1017
1017
1012
1015
1019
1025
1023
1024
1025
1025
1028
1033
1035
1034
1031
1029
1025
1024
1023
1018
1015
1019
1020
1022
1019
1011
1005
1005
1003
1004
1001
997
994
998
1003
1005
1004
1002
1002
1000
1004
1008
1006
1008
1007
1008
1011
1011
1011
1008
999
990
989
999
1021
1052
1093
1135
1167
1172
1135
1079
1021
993
982
987
995
1004
1006
1009
1011
1013
1011
1008
1004
1005
1010
1015
1016
1016
1012
1014
1017
1017
1019
1016
1014
1014
1016
1017
1018
1018
1019
1017
1019
1019
1019
1017
1014
1017
1020
1024
1024
1021
1019
1021
1023
1025
1024
1021
1017
1018
1021
1026
1027
1025
1021
1022
1023
1025
1024
1022
1018
1016
1025
1029
1027
1027
1023
1026
1027
1029
1028
1024
1025
1026
1028
1031
1029
1025
1019
1019
1021
1024
1022
1021
1016
1015
1015
1016
1013
1013
1006
1012
1012
1013
1013
1008
1009
1009
1009
1012
1010
1008
1007
1008
1010
1012
1011
1007
1006
1009
1011
1011
1009
1006
1004
1005
1008
1008
1009
1004
1005
1005
1006
1010
1008
1004
1005
1006
1010
1014
1011
1010
1008
1010
1012
1014
1011
1008
1007
1009
1010
1014
1012
1010
1009
1012
1016
1015
1011
1009
1006
1008
1011
1013
1011
1009
1008
1008
1012
1013
1009
1008
1007
1005
1010
1010
1008
1010
1005
1009
1010
1012
1011
1006
1001
1002
1004
1009
1006
1005
1001
997
1004
1006
1007
1002
1001
1000
1004
1007
1008
1007
1003
1002
1002
1003
998
999
997
999
1002
1006
1002
997
999
998
1003
1002
1002
1001
1000
999
1002
1006
999
1000
1002
1001
1004
1004
1002
1001
1001
1002
1001
1003
1000
999
1001
1003
1005
1008
1010
1008
1006
1005
1009
1012
1012
1012
1010
1014
1015
1018
1018
1013
1015
1022
1028
1026
1025
1018
1015
1012
1011
1013
1013
1009
1008
1004
1001
998
997
990
985
989
998
999
996
992
989
989
995
1001
1000
999
998
1000
1000
1004
1001
997
993
988
977
968
959
972
994
1032
1079
1116
1132
1117
1065
1004
967
958
962
977
992
1002
1008
1004
1002
999
999
1001
1002
1004
1003
1002
1001
1002
1005
1009
1007
1003
1005
1004
1006
1004
1000
999
998
1003
1005
1000
1002
1002
1001
1002
1003
1006
1005
1004
1000
1002
1003
1003
1004
1001
1001
1000
1002
1006
1003
1001
1000
1002
1007
1008
1006
1000
1000
1000
996
1001
1000
999
996
999
1000
1001
999
998
996
995
999
998
997
993
991
988
988
992
992
992
990
987
984
983
981
979
978
982
985
987
981
975
974
976
978
977
974
973
971
973
971
973
967
970
967
974
976
975
973
970
966
965
971
972
972
969
967
969
969
974
970
972
969
971
970
972
972
966
968
968
972
975
973
969
968
971
974
975
971
968
967
970
973
976
977
973
971
973
978
983
976
976
974
972
974
976
977
977
975
976
980
985
983
980
980
979
981
984
982
980
979
979
981
985
983
983
981
981
982
985
986
983
981
982
987
989
989
986
985
986
987
990
989
989
986
992
991
993
990
987
987
988
990
995
995
989
988
991
993
993
987
990
991
991
992
992
991
992
988
989
994
998
998
992
993
992
995
997
998
994
995
998
1000
999
1001
996
995
997
998
1002
1004
1007
1006
1007
1014
1016
1015
1016
1015
1021
1029
1030
1025
1016
1012
1010
1009
1011
1009
1012
1011
1009
1003
1002
1000
992
990
990
992
994
993
992
991
993
995
998
998
995
997
998
1002
1006
1005
1002
1001
997
991
988
993
1021
1062
1111
1154
1176
1169
1122
1065
1016
993
984
981
987
995
998
1000
1004
1002
998
995
998
999
1001
999
999
999
1003
1003
1006
1006
1006
1004
1004
1001
1001
1000
997
995
1000
1005
1005
1004
1003
1001
1000
1001
1002
1005
1001
1000
1001
1003
1007
1004
1002
1001
1003
1005
1007
1006
1006
1007
1010
1016
1017
1014
1013
1007
1005
1006
1011
1010
1008
1006
1007
1009
1009
1008
1010
1007
1010
1009
1012
1011
1008
1004
1006
1006
1009
1010
1009
1004
1004
1005
1008
1005
1001
993
993
995
999
997
995
991
992
995
995
993
993
991
996
995
997
994
991
987
995
998
998
994
992
990
991
997
999
998
996
992
991
993
995
992
992
990
992
996
998
998
997
992
990
995
996
995
996
993
997
995
994
994
991
991
991
997
1000
998
992
992
997
994
996
996
994
992
994
997
998
996
994
991
995
997
1000
1002
996
993
997
996
1001
1003
1000
998
999
1001
1002
1000
997
995
997
1001
1001
1002
999
998
1001
1003
1003
1003
1002
1004
1002
1004
1002
999
1002
998
1001
1002
1004
1001
1002
997
1002
1004
1004
1001
997
999
1001
1005
1003
1002
999
999
1001
1002
1004
1002
1003
1001
1005
1007
1009
1006
1003
1002
1006
1008
1011
1009
1008
1008
1008
1009
1011
1011
1011
1009
1011
1015
1017
1016
1015
1016
1020
1026
1028
1028
1028
1027
1024
1024
1025
1021
1019
1013
1014
1015
1018
1016
1010
1003
998
997
996
993
990
992
992
995
997
997
996
996
997
998
999
1001
997
999
1001
1007
1004
1003
1004
996
998
1007
1031
1064
1101
1141
1173
1191
1179
1128
1061
1009
986
977
977
985
990
994
996
999
1000
996
994
993
994
998
1000
999
998
997
999
999
1002
1001
1001
997
997
1003
1004
1003
1000
997
1000
1002
1002
1003
1002
1003
1006
1006
1010
1008
1008
1004
1007
1012
1012
1012
1011
1008
1010
1013
1018
1013
1009
1008
1007
1010
1012
1012
1010
1010
1012
1013
1014
1015
1011
1011
1011
1014
1014
1010
1006
1006
1003
1005
1006
1008
1006
1004
1002
1002
1001
999
996
996
995
995
993
987
989
989
991
991
991
989
981
982
984
984
986
984
980
979
979
981
984
980
978
973
976
977
977
978
972
970
968
973
976
975
975
973
971
973
974
974
971
970
971
976
978
974
970
968
971
970
975
980
975
970
973
972
972
971
970
971
973
975
977
974
971
972
975
974
975
974
976
973
976
978
975
976
973
972
972
972
971
968
970
970
973
972
975
974
973
973
975
975
975
973
972
971
974
976
974
973
968
967
964
966
967
969
967
969
972
976
975
971
967
968
969
972
974
969
965
964
964
972
971
971
969
970
971
972
970
969
969
969
971
975
975
974
970
971
972
975
978
978
979
976
979
982
986
986
986
984
991
992
998
995
989
982
980
978
978
976
974
975
977
972
968
965
960
952
953
959
959
958
956
955
957
960
962
961
959
958
954
963
966
966
955
939
928
941
978
1023
1062
1079
1065
1012
955
921
913
918
936
949
964
969
967
966
963
964
962
962
963
959
958
962
963
962
959
960
963
965
965
963
961
958
960
960
964
964
960
962
961
964
964
968
964
963
965
969
972
970
968
965
966
967
970
970
968
966
967
970
972
968
965
965
968
970
971
971
969
969
971
973
974
973
970
968
970
973
972
974
973
970
971
976
974
972
971
969
971
975
974
972
969
967
964
967
968
967
964
961
960
964
965
965
962
959
963
966
968
965
963
962
966
966
971
969
966
965
966
969
970
969
968
967
971
971
975
972
971
969
974
978
982
980
975
970
972
974
979
980
979
982
978
980
979
977
976
974
978
981
983
982
981
980
981
985
989
987
984
983
985
986
990
988
992
991
990
993
992
988
983
986
989
991
989
987
986
984
987
994
997
994
992
990
993
993
993
989
989
991
994
998
996
993
995
995
997
999
1002
1000
995
995
998
997
996
996
994
991
995
997
998
998
996
993
992
997
999
999
995
991
997
999
1002
1003
1001
998
996
998
999
998
1002
1001
1002
1001
1000
998
998
998
1000
1000
1003
1003
1004
1006
1004
1007
1007
1005
1004
1003
1004
1002
1006
1008
1007
1008
1009
1011
1012
1014
1015
1018
1022
1023
1023
1025
1022
1020
1017
1016
1015
1009
1009
1009
1011
1014
1010
1005
997
993
992
993
997
993
991
987
989
991
995
999
998
998
997
999
1000
1002
1000
996
1001
1005
1004
1002
996
994
1008
1036
1079
1113
1145
1167
1180
1178
1145
1085
1025
986
966
970
982
993
995
992
995
996
1000
1000
997
1000
1000
1004
1005
1006
1005
1003
1002
1006
1007
1002
1001
1003
1001
1004
1006
1005
1003
1002
1005
1012
1013
1008
1006
1003
1002
1007
1010
1010
1008
1008
1009
1007
1007
1003
1004
1003
1006
1010
1014
1014
1010
1008
1013
1021
1026
1019
1010
1004
1003
1005
1006
1009
1005
1006
1007
1011
1014
1014
1013
1009
1013
1013
1017
1012
1005
1001
1001
1005
1009
1012
1011
1008
1006
1005
1002
1001
1000
1002
1001
1005
1004
1001
1001
1001
1002
1002
1002
999
995
988
989
992
995
991
989
983
979
981
983
982
984
983
985
990
993
991
987
979
979
983
988
989
988
985
984
989
990
989
987
987
987
987
988
987
988
985
981
986
990
991
984
983
981
985
987
989
991
988
989
994
995
995
991
987
988
988
989
990
989
988
990
995
993
990
988
988
992
995
994
992
991
989
991
997
999
999
990
990
993
996
995
994
987
987
993
995
992
991
988
987
989
991
993
991
992
990
995
997
996
996
994
993
998
1000
1002
1000
1000
999
998
1000
1002
1001
999
998
1001
1008
1014
1013
1012
1012
1021
1027
1040
1049
1053
1057
1057
1051
1054
1048
1041
1035
1034
1038
1038
1031
1022
1016
1009
1007
1006
1005
997
993
990
987
983
982
979
983
987
991
995
992
987
985
989
993
995
995
989
987
987
990
993
988
986
979
977
981
996
1029
1065
1106
1140
1153
1145
1110
1054
999
971
961
964
971
975
975
980
989
991
990
986
984
987
992
990
990
987
983
986
988
991
990
987
986
988
989
991
988
987
986
992
992
991
990
988
988
989
993
993
994
988
990
992
993
995
995
993
991
990
991
995
995
995
995
994
996
997
996
994
994
997
999
993
993
992
990
992
996
998
993
994
993
995
994
998
998
992
995
999
999
1000
997
993
993
993
998
997
995
991
988
987
992
990
989
984
983
983
983
985
983
979
977
979
980
979
977
972
975
972
972
973
973
972
971
977
978
975
974
971
970
971
972
973
975
974
975
977
977
978
974
971
969
970
972
974
975
970
969
971
976
976
976
972
972
971
974
974
975
972
972
974
973
972
972
968
968
975
980
979
976
972
970
973
974
975
973
971
969
969
970
970
971
972
972
973
975
976
976
977
977
975
977
975
974
973
973
978
980
976
973
971
974
975
977
978
977
971
973
978
981
981
979
976
978
978
978
976
975
972
972
977
977
979
978
975
975
975
977
977
978
976
977
980
981
980
977
973
971
975
979
980
979
974
974
978
981
981
982
979
978
980
981
978
978
974
974
978
980
976
978
975
974
977
979
978
979
976
977
979
980
982
980
977
974
977
982
988
989
988
987
991
995
998
998
997
997
1001
1003
999
993
985
981
982
986
984
985
985
980
979
978
976
974
964
959
962
966
967
964
961
960
962
965
964
961
962
961
965
968
966
965
963
964
961
955
943
934
934
946
975
1008
1044
1073
1081
1062
1021
972
938
924
924
935
957
970
976
976
969
965
967
969
972
972
970
970
972
975
974
974
971
970
972
976
977
977
973
976
977
978
980
977
974
974
977
981
980
980
977
977
979
980
979
978
976
973
978
980
982
983
980
978
976
979
982
981
977
973
975
981
980
978
978
974
975
978
976
973
971
966
970
972
973
970
967
965
962
966
965
961
963
961
962
965
964
955
953
952
951
955
955
952
950
949
950
952
952
951
946
946
945
947
947
946
944
945
944
947
948
946
944
945
946
950
951
950
948
948
948
952
953
953
950
953
954
958
957
957
956
957
958
961
961
961
959
959
962
966
964
964
964
963
965
970
969
969
970
968
969
976
975
974
972
971
975
979
981
976
970
972
978
980
983
980
979
977
977
982
983
981
977
976
980
983
983
982
980
980
981
985
986
986
983
983
983
986
988
986
984
986
986
992
992
989
987
984
987
991
988
990
990
985
988
992
994
996
994
990
991
994
997
997
994
995
999
1003
1004
1005
1005
1005
1010
1014
1016
1019
1024
1031
1043
1050
1058
1053
1049
1048
1047
1050
1046
1038
1034
1034
1034
1031
1028
1022
1011
1006
1000
999
999
998
991
990
992
993
994
995
994
996
993
999
1000
997
999
999
1003
1006
1006
1005
1002
1000
999
997
1004
1021
1054
1096
1136
1166
1188
1193
1172
1118
1050
1001
982
979
984
992
999
1003
1002
1001
1000
999
997
1002
1003
1004
1000
1001
1004
1004
1005
1008
1006
1006
1007
1009
1009
1006
1005
1007
1009
1012
1014
1010
1010
1011
1011
1014
1015
1014
1012
1012
1014
1018
1017
1018
1016
1014
1017
1019
1020
1020
1017
1018
1021
1023
1023
1024
1019
1020
1022
1025
1026
1023
1019
1019
1022
1027
1027
1027
1025
1025
1027
1032
1031
1028
1024
1024
1029
1030
1031
1026
1028
1027
1025
1028
1030
1026
1020
1022
1022
1025
1021
1020
1016
1015
1016
1016
1016
1014
1011
1014
1015
1018
1017
1017
1015
1014
1014
1016
1016
1014
1012
1011
1010
1016
1016
1015
1014
1012
1014
1014
1016
1017
1017
1017
1019
1018
1018
1019
1017
1015
1018
1022
1023
1022
1017
1018
1023
1025
1025
1024
1022
1022
1022
1026
1026
1027
1024
1023
1026
1029
1029
1028
1026
1025
1025
1029
1030
1029
1027
1028
1030
1031
1034
1033
1029
1027
1030
1033
1033
1031
1032
1032
1034
1036
1037
1036
1030
1031
1034
1035
1037
1033
1033
1033
1036
1038
1039
1036
1034
1033
1033
1036
1037
1036
1033
1034
1035
1040
1036
1039
1034
1034
1038
1039
1041
1036
1037
1036
1040
1042
1041
1039
1038
1038
1040
1042
1039
1041
1037
1039
1040
1044
1042
1039
1037
1038
1040
1042
1043
1041
1036
1034
1036
1039
1040
1041
1039
1038
1038
1042
1043
1042
1039
1040
1044
1047
1048
1044
1044
1044
1047
1045
1046
1048
1049
1048
1052
1053
1053
1054
1055
1058
1065
1069
1070
1070
1062
1059
1056
1054
1054
1050
1046
1047
1048
1052
1045
1037
1035
1029
1030
1032
1033
1032
1028
1027
1029
1033
1034
1032
1028
1028
1032
1035
1039
1039
1035
1035
1036
1032
1026
1021
1030
1056
1095
1134
1176
1195
1192
1147
1085
1036
1008
1003
1008
1016
1026
1030
1029
1029
1024
1024
1024
1028
1026
1025
1022
1021
1027
1032
1033
1027
1022
1020
1023
1025
1028
1027
1023
1019
1024
1028
1027
1023
1022
1021
1025
1027
1029
1027
1025
1023
1024
1022
1023
1022
1015
1018
1021
1020
1022
1022
1020
1019
1019
1023
1022
1018
1015
1014
1019
1021
1022
1017
1013
1011
1014
1013
1016
1013
1012
1013
1015
1019
1021
1019
1014
1011
1010
1009
1011
1006
1001
998
997
999
999
995
992
994
995
999
998
995
989
988
989
994
993
992
990
988
990
992
987
984
983
985
989
990
989
986
980
983
982
988
991
986
983
982
983
985
986
982
978
979
983
987
991
989
983
985
986
985
986
986
984
986
988
987
988
986
984
980
984
985
987
985
982
983
985
988
987
985
982
982
987
989
990
986
984
982
982
984
983
980
977
978
980
981
981
979
977
974
979
977
978
976
969
972
976
976
975
972
970
968
972
977
978
974
970
970
971
973
971
969
966
964
966
971
974
970
966
968
968
967
964
965
963
965
969
970
972
975
974
974
976
977
979
982
985
991
1000
1011
1021
1021
1016
1013
1011
1012
1008
1000
991
992
992
990
982
971
959
952
949
950
947
946
938
941
941
943
946
943
937
935
939
940
945
942
941
939
940
943
943
938
929
915
908
909
921
942
974
1017
1053
1065
1032
962
909
895
904
925
939
943
943
940
939
942
945
942
937
938
938
940
943
944
943
941
944
945
947
946
941
941
941
944
947
948
944
944
945
945
946
944
942
941
945
947
947
946
942
943
940
946
943
942
940
944
943
947
946
946
941
944
945
949
946
944
942
944
946
951
949
945
941
940
946
950
948
949
944
941
940
940
940
940
936
934
935
938
937
934
932
929
931
936
935
936
933
933
935
938
937
934
932
932
934
938
938
937
933
936
939
943
944
940
938
941
941
944
947
945
945
945
950
951
953
951
949
950
951
953
956
957
954
957
960
961
962
959
958
960
964
967
966
964
964
964
968
969
969
972
969
969
971
972
972
970
968
968
971
976
977
974
973
973
978
977
978
978
974
975
980
983
984
983
979
975
981
985
982
979
981
981
981
987
989
984
982
981
981
987
990
988
986
985
988
989
990
989
986
986
990
992
993
993
989
989
993
997
996
996
991
991
991
998
997
996
995
993
996
998
1001
999
998
999
1005
1009
1013
1013
1011
1014
1018
1023
1028
1036
1044
1051
1054
1056
1056
1052
1050
1047
1043
1042
1040
1033
1029
1024
1022
1015
1008
1001
994
994
993
995
996
994
990
989
997
999
997
997
992
995
999
1004
1002
1001
1001
996
999
996
996
1005
1028
1069
1115
1160
1192
1207
1191
1140
1070
1016
984
976
982
992
999
1007
1004
1005
999
997
1002
1006
1004
1006
1005
1006
1006
1008
1012
1009
1006
1005
1007
1009
1014
1010
1008
1009
1008
1012
1011
1011
1007
1009
1013
1015
1015
1013
1013
1014
1017
1019
1020
1018
1016
1015
1017
1020
1018
1019
1015
1016
1017
1019
1022
1019
1017
1020
1021
1020
1022
1021
1020
1023
1025
1025
1027
1023
1022
1020
1023
1026
1027
1025
1021
1022
1025
1025
1023
1020
1018
1016
1017
1017
1012
1014
1010
1010
1014
1013
1013
1011
1009
1010
1010
1015
1012
1011
1007
1010
1008
1011
1011
1011
1006
1009
1012
1015
1016
1011
1009
1012
1011
1017
1016
1016
1013
1013
1014
1020
1021
1018
1016
1014
1018
1019
1021
1019
1020
1020
1021
1022
1024
1022
1021
1020
1024
1026
1023
1020
1022
1023
1023
1023
1026
1027
1027
1026
1026
1028
1027
1027
1024
1023
1027
1030
1029
1027
1025
1026
1028
1029
1034
1032
1029
1026
1029
1031
1029
1029
1026
1025
1027
1033
1033
1034
1031
1031
1034
1035
1035
1032
1031
1035
1037
1038
1039
1035
1031
1032
1037
1038
1040
1037
1036
1032
1034
1035
1038
1034
1031
1033
1034
1037
1037
1038
1036
1034
1036
1040
1040
1039
1036
1035
1038
1042
1041
1036
1035
1033
1040
1043
1044
1042
1037
1036
1040
1043
1042
1043
1039
1039
1041
1043
1043
1041
1041
1041
1045
1050
1048
1049
1048
1047
1051
1054
1053
1054
1052
1054
1057
1062
1062
1062
1064
1071
1075
1078
1082
1080
1072
1066
1066
1065
1064
1058
1054
1054
1053
1051
1045
1039
1036
1036
1037
1039
1043
1041
1037
1037
1039
1042
1042
1043
1043
1044
1047
1050
1050
1048
1047
1050
1052
1053
1049
1040
1034
1043
1063
1101
1138
1173
1203
1225
1225
1190
1126
1065
1034
1024
1029
1038
1046
1048
1045
1046
1048
1049
1049
1050
1048
1048
1051
1056
1054
1051
1047
1050
1051
1055
1056
1053
1051
1050
1054
1056
1057
1054
1051
1054
1056
1058
1058
1055
1054
1056
1059
1064
1062
1061
1058
1056
1060
1063
1064
1064
1061
1058
1058
1061
1061
1060
1057
1056
1057
1057
1060
1055
1056
1055
1060
1061
1059
1061
1056
1058
1061
1062
1062
1060
1058
1053
1059
1061
1060
1056
1054
1053
1054
1055
1055
1052
1049
1048
1045
1047
1046
1046
1040
1040
1042
1046
1044
1041
1038
1035
1037
1037
1036
1031
1027
1028
1033
1035
1031
1028
1026
1025
1030
1032
1028
1025
1023
1024
1021
1024
1024
1023
1021
1021
1023
1022
1022
1024
1020
1022
1022
1028
1026
1023
1019
1016
1021
1023
1023
1021
1020
1017
1017
1024
1023
1019
1018
1018
1022
1026
1026
1021
1020
1016
1024
1025
1024
1021
1020
1020
1021
1024
1023
1021
1018
1020
1022
1024
1025
1024
1020
1020
1023
1025
1024
1024
1022
1020
1026
1024
1025
1022
1021
1020
1021
1023
1025
1024
1023
1021
1023
1025
1027
1026
1023
1023
1022
1023
1023
1021
1016
1018
1019
1024
1023
1022
1020
1017
1021
1021
1023
1021
1016
1020
1023
1024
1023
1021
1018
1016
1020
1022
1020
1019
1019
1019
1023
1023
1021
1017
1015
1017
1018
1022
1022
1019
1018
1021
1022
1025
1026
1023
1018
1018
1018
1023
1031
1030
1030
1031
1034
1037
1039
1036
1035
1042
1048
1055
1057
1058
1058
1051
1052
1051
1050
1040
1038
1031
1035
1037
1035
1029
1020
1014
1013
1012
1007
1005
1003
1000
1004
1007
1008
1004
1003
998
1004
1006
1009
1004
1002
1004
1006
1008
1007
1007
1003
998
988
984
986
1006
1030
1063
1095
1126
1137
1113
1057
1005
972
968
972
979
989
1001
1010
1011
1010
1007
1000
1001
999
1004
1006
1005
1002
1002
1004
1008
1007
1005
1002
1004
1006
1006
1006
1007
1006
1006
1008
1010
1005
1004
1001
1006
1008
1010
1010
1007
1003
1001
1004
1008
1007
1006
999
1003
1004
1009
1010
1008
1006
1007
1007
1006
1008
1008
1002
1004
1005
1006
1004
1001
1000
998
1001
1004
1006
1004
999
999
1002
1003
1001
1000
998
999
999
1002
1003
1001
996
997
997
999
994
991
988
988
989
988
988
983
984
982
982
985
983
978
978
979
979
981
982
977
