-0.055
-0.054
-0.053
-0.052
-0.052
-0.053
-0.053
-0.053
-0.052
-0.052
-0.051
-0.051
-0.051
-0.051
-0.05
-0.049
-0.049
-0.048
-0.047
-0.047
-0.045
-0.041
-0.036
-0.029
-0.021
-0.012
0
0.008
0.015
0.021
0.026
0.024
0.024
0.024
0.022
0.019
0.014
0.008
0
-0.008
-0.016
-0.024
-0.03
-0.035
-0.038
-0.04
-0.041
-0.04
-0.04
-0.04
-0.04
-0.039
-0.039
-0.039
-0.04
-0.04
-0.038
-0.037
-0.037
-0.036
-0.034
-0.035
-0.036
-0.038
-0.043
-0.04
-0.025
0.002
0.045
0.1
0.157
0.214
0.271
0.326
0.375
0.403
0.407
0.385
0.338
0.273
0.205
0.138
0.072
0.005
-0.049
-0.086
-0.105
-0.107
-0.096
-0.082
-0.071
-0.066
-0.065
-0.064
-0.064
-0.064
-0.063
-0.062
-0.061
-0.06
-0.059
-0.058
-0.057
-0.056
-0.055
-0.054
-0.053
-0.049
-0.043
-0.035
-0.027
-0.017
-0.008
0.001
0.009
0.017
0.026
0.037
0.048
0.059
0.069
0.078
0.083
0.088
0.091
0.092
0.092
0.094
0.094
0.095
0.095
0.094
0.092
0.089
0.086
0.084
0.079
0.075
0.069
0.061
0.051
0.042
0.029
0.018
0.008
-0.002
-0.01
-0.016
-0.025
-0.033
-0.042
-0.05
-0.056
-0.06
-0.061
-0.062
-0.062
-0.062
-0.061
-0.06
-0.059
-0.057
-0.056
-0.056
-0.056
-0.054
-0.054
-0.053
-0.052
-0.051
-0.051
-0.05
-0.049
-0.049
-0.049
-0.049
-0.048
-0.047
-0.047
-0.047
-0.046
-0.045
-0.045
-0.044
-0.044
-0.044
-0.045
-0.044
-0.044
-0.042
-0.042
-0.041
-0.04
-0.04
-0.039
-0.038
-0.038
-0.038
-0.037
-0.037
-0.037
-0.036
-0.036
-0.035
-0.035
-0.035
-0.035
-0.035
-0.034
-0.031
-0.025
-0.018
-0.009
-0
0.01
0.018
0.024
0.03
0.034
0.036
0.037
0.036
0.036
0.033
0.028
0.023
0.016
0.008
-0.001
-0.01
-0.017
-0.023
-0.027
-0.029
-0.03
-0.031
-0.03
-0.029
-0.029
-0.028
-0.027
-0.027
-0.028
-0.028
-0.028
-0.029
-0.029
-0.029
-0.028
-0.027
-0.028
-0.03
-0.034
-0.032
-0.018
0.008
0.048
0.101
0.159
0.217
0.273
0.328
0.378
0.408
0.413
0.393
0.349
0.286
0.217
0.15
0.083
0.018
-0.036
-0.075
-0.095
-0.099
-0.088
-0.075
-0.064
-0.059
-0.057
-0.056
-0.056
-0.056
-0.057
-0.056
-0.057
-0.057
-0.056
-0.055
-0.054
-0.054
-0.053
-0.052
-0.05
-0.047
-0.042
-0.036
-0.027
-0.018
-0.009
-0
0.009
0.018
0.028
0.038
0.047
0.057
0.068
0.075
0.08
0.086
0.089
0.09
0.092
0.094
0.095
0.095
0.094
0.093
0.091
0.088
0.085
0.082
0.078
0.073
0.067
0.059
0.05
0.039
0.029
0.019
0.008
-0.001
-0.009
-0.017
-0.026
-0.035
-0.043
-0.052
-0.06
-0.065
-0.065
-0.065
-0.064
-0.062
-0.061
-0.063
-0.063
-0.063
-0.063
-0.064
-0.063
-0.062
-0.062
-0.061
-0.06
-0.059
-0.059
-0.058
-0.057
-0.057
-0.056
-0.055
-0.055
-0.054
-0.054
-0.054
-0.054
-0.054
-0.053
-0.053
-0.051
-0.051
-0.05
-0.05
-0.05
-0.051
-0.051
-0.051
-0.051
-0.05
-0.049
-0.048
-0.048
-0.048
-0.048
-0.048
-0.049
-0.049
-0.05
-0.05
-0.05
-0.05
-0.049
-0.049
-0.047
-0.043
-0.038
-0.03
-0.022
-0.013
-0.004
0.004
0.011
0.017
0.022
0.024
0.024
0.023
0.022
0.019
0.014
0.008
0.001
-0.008
-0.017
-0.025
-0.032
-0.038
-0.041
-0.044
-0.045
-0.045
-0.046
-0.046
-0.046
-0.047
-0.046
-0.045
-0.044
-0.043
-0.041
-0.041
-0.042
-0.042
-0.044
-0.046
-0.047
-0.049
-0.053
-0.047
-0.031
-0.003
0.037
0.091
0.148
0.205
0.261
0.318
0.369
0.4
0.406
0.386
0.341
0.277
0.208
0.141
0.074
0.006
-0.051
-0.09
-0.11
-0.114
-0.103
-0.089
-0.081
-0.075
-0.074
-0.072
-0.071
-0.07
-0.069
-0.069
-0.067
-0.066
-0.064
-0.063
-0.062
-0.062
-0.062
-0.061
-0.06
-0.057
-0.051
-0.044
-0.035
-0.025
-0.016
-0.007
0.002
0.012
0.022
0.031
0.04
0.049
0.058
0.065
0.071
0.076
0.08
0.082
0.083
0.085
0.086
0.086
0.085
0.084
0.081
0.078
0.074
0.071
0.068
0.064
0.058
0.051
0.043
0.033
0.023
0.013
0.003
-0.006
-0.014
-0.022
-0.031
-0.039
-0.047
-0.056
-0.063
-0.067
-0.07
-0.071
-0.07
-0.067
-0.066
-0.065
-0.064
-0.064
-0.065
-0.065
-0.065
-0.064
-0.063
-0.063
-0.062
-0.062
-0.062
-0.062
-0.062
-0.063
-0.062
-0.061
-0.06
-0.058
-0.056
-0.056
-0.055
-0.054
-0.055
-0.055
-0.053
-0.053
-0.052
-0.051
-0.05
-0.049
-0.05
-0.05
-0.049
-0.049
-0.05
-0.049
-0.048
-0.048
-0.047
-0.046
-0.045
-0.044
-0.043
-0.042
-0.041
-0.04
-0.039
-0.038
-0.037
-0.035
-0.03
-0.024
-0.016
-0.008
-0
0.007
0.014
0.02
0.026
0.029
0.03
0.03
0.028
0.024
0.02
0.015
0.008
0
-0.008
-0.017
-0.025
-0.031
-0.036
-0.039
-0.04
-0.04
-0.039
-0.038
-0.037
-0.036
-0.035
-0.035
-0.035
-0.034
-0.033
-0.033
-0.033
-0.033
-0.032
-0.032
-0.032
-0.034
-0.038
-0.037
-0.023
0.003
0.043
0.096
0.154
0.211
0.268
0.323
0.375
0.407
0.415
0.398
0.355
0.292
0.224
0.155
0.088
0.021
-0.035
-0.074
-0.096
-0.101
-0.09
-0.076
-0.065
-0.059
-0.057
-0.057
-0.055
-0.055
-0.055
-0.053
-0.052
-0.051
-0.05
-0.049
-0.049
-0.05
-0.05
-0.049
-0.048
-0.044
-0.039
-0.031
-0.023
-0.013
-0.003
0.006
0.014
0.023
0.032
0.041
0.05
0.059
0.07
0.079
0.085
0.091
0.098
0.1
0.103
0.105
0.106
0.103
0.101
0.1
0.097
0.094
0.091
0.088
0.084
0.08
0.075
0.068
0.059
0.049
0.038
0.028
0.018
0.009
-0
-0.009
-0.019
-0.029
-0.039
-0.048
-0.054
-0.059
-0.059
-0.059
-0.058
-0.056
-0.056
-0.057
-0.057
-0.058
-0.058
-0.056
-0.055
-0.055
-0.054
-0.054
-0.053
-0.053
-0.052
-0.051
-0.051
-0.051
-0.052
-0.051
-0.05
-0.049
-0.047
-0.046
-0.044
-0.043
-0.043
-0.042
-0.042
-0.042
-0.043
-0.042
-0.044
-0.044
-0.044
-0.042
-0.042
-0.04
-0.04
-0.04
-0.04
-0.04
-0.039
-0.038
-0.036
-0.035
-0.033
-0.032
-0.032
-0.032
-0.032
-0.033
-0.034
-0.032
-0.028
-0.023
-0.016
-0.008
0.001
0.009
0.016
0.021
0.026
0.03
0.032
0.033
0.032
0.031
0.025
0.02
0.013
0.006
-0.002
-0.011
-0.019
-0.026
-0.03
-0.034
-0.035
-0.036
-0.037
-0.038
-0.038
-0.038
-0.036
-0.036
-0.036
-0.035
-0.035
-0.035
-0.036
-0.036
-0.034
-0.033
-0.033
-0.034
-0.037
-0.036
-0.024
0.001
0.039
0.092
0.15
0.206
0.262
0.318
0.371
0.405
0.414
0.399
0.358
0.295
0.226
0.157
0.09
0.022
-0.036
-0.077
-0.1
-0.107
-0.098
-0.084
-0.074
-0.067
-0.064
-0.064
-0.064
-0.064
-0.064
-0.064
-0.064
-0.062
-0.062
-0.062
-0.061
-0.06
-0.059
-0.058
-0.057
-0.054
-0.05
-0.044
-0.035
-0.026
-0.016
-0.008
0.001
0.01
0.019
0.029
0.04
0.051
0.061
0.07
0.076
0.08
0.083
0.084
0.085
0.086
0.087
0.088
0.088
0.086
0.084
0.082
0.078
0.075
0.071
0.066
0.06
0.053
0.045
0.035
0.025
0.013
0.003
-0.007
-0.015
-0.023
-0.032
-0.041
-0.05
-0.059
-0.067
-0.071
-0.074
-0.076
-0.075
-0.074
-0.073
-0.072
-0.072
-0.07
-0.07
-0.069
-0.069
-0.068
-0.067
-0.068
-0.067
-0.067
-0.068
-0.068
-0.066
-0.065
-0.064
-0.063
-0.062
-0.062
-0.062
-0.062
-0.06
-0.06
-0.06
-0.059
-0.058
-0.057
-0.056
-0.055
-0.053
-0.053
-0.053
-0.052
-0.051
-0.051
-0.05
-0.049
-0.049
-0.049
-0.05
-0.049
-0.049
-0.05
-0.05
-0.049
-0.05
-0.049
-0.048
-0.047
-0.046
-0.042
-0.037
-0.03
-0.023
-0.014
-0.005
0.003
0.009
0.015
0.021
0.024
0.025
0.026
0.025
0.02
0.014
0.008
-0
-0.008
-0.016
-0.023
-0.03
-0.036
-0.04
-0.042
-0.043
-0.043
-0.043
-0.043
-0.043
-0.043
-0.042
-0.042
-0.043
-0.043
-0.042
-0.042
-0.042
-0.042
-0.041
-0.04
-0.04
-0.044
-0.028
-0.026
-0.012
0.014
0.055
0.088
0.146
0.204
0.261
0.316
0.368
0.399
0.406
0.387
0.345
0.281
0.212
0.144
0.075
0.008
-0.048
-0.087
-0.108
-0.112
-0.102
-0.089
-0.079
-0.072
-0.07
-0.07
-0.068
-0.067
-0.067
-0.066
-0.065
-0.065
-0.064
-0.063
-0.062
-0.062
-0.061
-0.061
-0.059
-0.056
-0.051
-0.044
-0.035
-0.026
-0.016
-0.006
0.003
0.012
0.022
0.031
0.04
0.05
0.06
0.068
0.075
0.08
0.085
0.087
0.087
0.088
0.089
0.088
0.087
0.086
0.085
0.082
0.08
0.077
0.074
0.068
0.062
0.053
0.044
0.033
0.024
0.015
0.006
-0.003
-0.011
-0.019
-0.028
-0.037
-0.045
-0.053
-0.06
-0.065
-0.067
-0.068
-0.068
-0.067
-0.067
-0.067
-0.067
-0.066
-0.066
-0.063
-0.063
-0.062
-0.062
-0.061
-0.06
-0.059
-0.059
-0.058
-0.057
-0.056
-0.055
-0.054
-0.052
-0.052
-0.053
-0.053
-0.052
-0.052
-0.051
-0.049
-0.048
-0.048
-0.047
-0.046
-0.047
-0.047
-0.047
-0.047
-0.046
-0.043
-0.044
-0.043
-0.042
-0.042
-0.042
-0.041
-0.04
-0.039
-0.038
-0.037
-0.036
-0.036
-0.036
-0.035
-0.034
-0.031
-0.025
-0.019
-0.012
-0.002
0.007
0.015
0.022
0.028
0.032
0.034
0.035
0.035
0.031
0.029
0.024
0.019
0.013
0.009
-0
-0.008
-0.015
-0.021
-0.026
-0.028
-0.029
-0.031
-0.031
-0.03
-0.03
-0.03
-0.029
-0.029
-0.029
-0.028
-0.028
-0.028
-0.028
-0.028
-0.027
-0.026
-0.026
-0.028
-0.016
-0.016
-0.005
0.018
0.055
0.09
0.147
0.204
0.261
0.318
0.373
0.41
0.421
0.407
0.368
0.307
0.238
0.17
0.102
0.034
-0.026
-0.07
-0.095
-0.103
-0.094
-0.079
-0.068
-0.061
-0.058
-0.058
-0.057
-0.057
-0.056
-0.055
-0.054
-0.053
-0.052
-0.052
-0.05
-0.049
-0.048
-0.047
-0.046
-0.043
-0.038
-0.032
-0.024
-0.015
-0.005
0.004
0.013
0.023
0.032
0.041
0.05
0.059
0.068
0.076
0.082
0.087
0.091
0.093
0.094
0.095
0.098
0.099
0.099
0.098
0.097
0.093
0.09
0.088
0.085
0.08
0.074
0.067
0.058
0.047
0.037
0.027
0.017
0.007
-0.002
-0.011
-0.02
-0.028
-0.036
-0.045
-0.053
-0.059
-0.064
-0.066
-0.066
-0.065
-0.063
-0.063
-0.062
-0.062
-0.06
-0.059
-0.058
-0.057
-0.055
-0.055
-0.055
-0.055
-0.054
-0.054
-0.053
-0.052
-0.052
-0.053
-0.053
-0.053
-0.054
-0.053
-0.052
-0.051
-0.05
-0.049
-0.048
-0.047
-0.047
-0.047
-0.046
-0.046
-0.046
-0.045
-0.044
-0.043
-0.043
-0.043
-0.042
-0.042
-0.042
-0.041
-0.04
-0.039
-0.039
-0.039
-0.039
-0.04
-0.039
-0.038
-0.038
-0.036
-0.031
-0.025
-0.017
-0.008
0.001
0.008
0.015
0.02
0.024
0.027
0.027
0.027
0.026
0.024
0.02
0.014
0.007
-0.002
-0.011
-0.019
-0.026
-0.032
-0.036
-0.039
-0.041
-0.042
-0.042
-0.042
-0.042
-0.042
-0.041
-0.041
-0.04
-0.039
-0.037
-0.037
-0.037
-0.037
-0.037
-0.038
-0.039
-0.041
-0.045
-0.046
-0.036
-0.014
0.022
0.072
0.129
0.187
0.246
0.303
0.358
0.397
0.411
0.398
0.36
0.3
0.231
0.161
0.093
0.024
-0.036
-0.08
-0.106
-0.115
-0.107
-0.093
-0.082
-0.075
-0.072
-0.071
-0.069
-0.068
-0.067
-0.066
-0.067
-0.067
-0.067
-0.066
-0.066
-0.063
-0.063
-0.062
-0.061
-0.058
-0.053
-0.046
-0.038
-0.028
-0.019
-0.009
-0.001
0.008
0.017
0.027
0.035
0.045
0.054
0.062
0.068
0.074
0.078
0.081
0.081
0.083
0.081
0.081
0.081
0.081
0.08
0.08
0.077
0.074
0.071
0.066
0.06
0.053
0.044
0.033
0.023
0.013
0.002
-0.007
-0.016
-0.025
-0.034
-0.042
-0.05
-0.058
-0.066
-0.071
-0.074
-0.076
-0.076
-0.075
-0.073
-0.072
-0.072
-0.071
-0.07
-0.07
-0.069
-0.067
-0.066
-0.065
-0.065
-0.065
-0.065
-0.065
-0.065
-0.064
-0.064
-0.064
-0.063
-0.062
-0.061
-0.06
-0.059
-0.057
-0.057
-0.056
-0.055
-0.055
-0.055
-0.054
-0.053
-0.053
-0.053
-0.053
-0.052
-0.051
-0.05
-0.048
-0.047
-0.048
-0.047
-0.048
-0.048
-0.048
-0.048
-0.048
-0.048
-0.047
-0.047
-0.046
-0.045
-0.042
-0.036
-0.03
-0.022
-0.015
-0.006
0
0.006
0.012
0.018
0.021
0.023
0.025
0.025
0.023
0.019
0.014
0.008
0.001
-0.008
-0.016
-0.024
-0.031
-0.036
-0.039
-0.04
-0.041
-0.041
-0.041
-0.041
-0.041
-0.04
-0.039
-0.039
-0.038
-0.038
-0.037
-0.037
-0.037
-0.036
-0.036
-0.036
-0.038
-0.042
-0.042
-0.032
-0.01
0.05
0.1
0.157
0.215
0.272
0.301
0.355
0.395
0.41
0.401
0.367
0.309
0.24
0.172
0.106
0.04
-0.021
-0.065
-0.093
-0.104
-0.098
-0.084
-0.073
-0.065
-0.061
-0.061
-0.06
-0.059
-0.059
-0.058
-0.057
-0.057
-0.056
-0.056
-0.054
-0.054
-0.054
-0.053
-0.051
-0.048
-0.043
-0.035
-0.027
-0.019
-0.01
-0.001
0.007
0.015
0.025
0.035
0.044
0.054
0.064
0.072
0.079
0.084
0.089
0.091
0.091
0.092
0.093
0.093
0.093
0.093
0.092
0.09
0.088
0.085
0.082
0.077
0.071
0.064
0.055
0.044
0.033
0.023
0.012
0.003
-0.005
-0.013
-0.022
-0.031
-0.04
-0.049
-0.056
-0.061
-0.063
-0.065
-0.065
-0.065
-0.064
-0.063
-0.063
-0.062
-0.061
-0.06
-0.059
-0.058
-0.059
-0.058
-0.058
-0.058
-0.058
-0.056
-0.056
-0.055
-0.054
-0.054
-0.052
-0.05
-0.05
-0.049
-0.048
-0.047
-0.047
-0.046
-0.045
-0.045
-0.046
-0.045
-0.044
-0.044
-0.043
-0.042
-0.042
-0.042
-0.041
-0.04
-0.04
-0.038
-0.037
-0.036
-0.035
-0.034
-0.034
-0.033
-0.033
-0.034
-0.034
-0.035
-0.034
-0.032
-0.027
-0.02
-0.012
-0.003
0.006
0.014
0.021
0.027
0.033
0.036
0.037
0.037
0.036
0.033
0.029
0.024
0.019
0.011
0.003
-0.005
-0.013
-0.021
-0.026
-0.029
-0.031
-0.032
-0.033
-0.033
-0.033
-0.033
-0.032
-0.032
-0.031
-0.031
-0.029
-0.029
-0.029
-0.029
-0.028
-0.029
-0.028
-0.029
-0.033
-0.034
-0.025
-0.004
0.052
0.101
0.158
0.217
0.275
0.31
0.365
0.405
0.419
0.409
0.374
0.316
0.248
0.18
0.112
0.044
-0.017
-0.062
-0.09
-0.101
-0.096
-0.083
-0.071
-0.064
-0.06
-0.059
-0.058
-0.058
-0.059
-0.059
-0.058
-0.058
-0.057
-0.055
-0.054
-0.054
-0.054
-0.054
-0.052
-0.05
-0.045
-0.038
-0.03
-0.022
-0.012
-0.003
0.005
0.012
0.022
0.031
0.041
0.052
0.064
0.073
0.08
0.085
0.088
0.087
0.088
0.089
0.09
0.092
0.092
0.091
0.089
0.086
0.083
0.08
0.077
0.072
0.066
0.06
0.052
0.042
0.031
0.021
0.01
-0.001
-0.009
-0.018
-0.027
-0.035
-0.044
-0.053
-0.06
-0.065
-0.068
-0.07
-0.069
-0.069
-0.068
-0.068
-0.068
-0.068
-0.067
-0.067
-0.067
-0.066
-0.065
-0.065
-0.064
-0.063
-0.062
-0.061
-0.061
-0.06
-0.059
-0.059
-0.058
-0.057
-0.057
-0.057
-0.056
-0.056
-0.056
-0.055
-0.055
-0.056
-0.055
-0.054
-0.053
-0.052
-0.052
-0.052
-0.051
-0.051
-0.051
-0.051
-0.051
-0.051
-0.052
-0.05
-0.049
-0.048
-0.048
-0.047
-0.046
-0.046
-0.044
-0.043
-0.042
-0.04
-0.036
-0.03
-0.023
-0.014
-0.006
0.002
0.008
0.014
0.018
0.021
0.023
0.023
0.022
0.02
0.017
0.012
0.005
-0.002
-0.01
-0.018
-0.025
-0.03
-0.035
-0.038
-0.04
-0.042
-0.042
-0.042
-0.043
-0.043
-0.042
-0.042
-0.043
-0.044
-0.043
-0.043
-0.043
-0.041
-0.04
-0.039
-0.039
-0.041
-0.045
-0.047
-0.039
-0.018
0.016
0.065
0.122
0.18
0.26
0.315
0.37
0.412
0.43
0.398
0.365
0.309
0.241
0.173
0.106
0.039
-0.024
-0.071
-0.101
-0.112
-0.108
-0.094
-0.081
-0.074
-0.069
-0.069
-0.068
-0.068
-0.067
-0.067
-0.065
-0.064
-0.064
-0.063
-0.062
-0.061
-0.061
-0.061
-0.061
-0.059
-0.055
-0.049
-0.04
-0.03
-0.02
-0.01
-0.002
0.006
0.014
0.023
0.032
0.041
0.051
0.059
0.066
0.071
0.076
0.079
0.081
0.082
0.084
0.085
0.085
0.085
0.083
0.082
0.079
0.077
0.074
0.071
0.064
0.057
0.047
0.037
0.027
0.017
0.008
-0.002
-0.01
-0.018
-0.027
-0.036
-0.045
-0.053
-0.06
-0.065
-0.068
-0.07
-0.071
-0.071
-0.071
-0.071
-0.071
-0.07
-0.069
-0.069
-0.069
-0.068
-0.067
-0.066
-0.066
-0.065
-0.063
-0.062
-0.062
-0.06
-0.059
-0.06
-0.059
-0.059
-0.059
-0.059
-0.057
-0.057
-0.056
-0.055
-0.055
-0.055
-0.054
-0.053
-0.051
-0.05
-0.049
-0.049
-0.048
-0.048
-0.048
-0.048
-0.049
-0.048
-0.048
-0.046
-0.045
-0.042
-0.042
-0.041
-0.041
-0.041
-0.039
-0.039
-0.039
-0.038
-0.034
-0.029
-0.022
-0.014
-0.004
0.005
0.013
0.019
0.024
0.027
0.028
0.028
0.029
0.028
0.025
0.02
0.014
0.005
-0.004
-0.012
-0.019
-0.025
-0.03
-0.033
-0.034
-0.035
-0.035
-0.036
-0.036
-0.036
-0.036
-0.036
-0.035
-0.035
-0.034
-0.034
-0.034
-0.034
-0.033
-0.033
-0.033
-0.034
-0.038
-0.04
-0.032
-0.012
0.023
0.071
0.129
0.187
0.245
0.301
0.356
0.398
0.417
0.41
0.378
0.324
0.256
0.188
0.121
0.053
-0.01
-0.057
-0.087
-0.1
-0.097
-0.083
-0.071
-0.063
-0.058
-0.057
-0.056
-0.056
-0.055
-0.055
-0.054
-0.053
-0.052
-0.051
-0.049
-0.049
-0.048
-0.048
-0.047
-0.045
-0.041
-0.034
-0.027
-0.018
-0.008
0.001
0.01
0.019
0.029
0.039
0.048
0.058
0.068
0.077
0.083
0.089
0.093
0.094
0.096
0.097
0.099
0.1
0.1
0.1
0.099
0.096
0.093
0.091
0.088
0.085
0.079
0.073
0.065
0.055
0.044
0.033
0.022
0.012
0.003
-0.005
-0.013
-0.022
-0.031
-0.04
-0.049
-0.055
-0.059
-0.061
-0.061
-0.06
-0.058
-0.058
-0.056
-0.055
-0.054
-0.054
-0.054
-0.053
-0.052
-0.051
-0.051
-0.049
-0.048
-0.049
-0.048
-0.047
-0.047
-0.046
-0.045
-0.043
-0.043
-0.043
-0.042
-0.042
-0.042
-0.042
-0.042
-0.041
-0.041
-0.041
-0.041
-0.041
-0.041
-0.041
-0.04
-0.04
-0.04
-0.039
-0.037
-0.037
-0.036
-0.035
-0.034
-0.036
-0.036
-0.036
-0.037
-0.037
-0.036
-0.036
-0.035
-0.033
-0.029
-0.023
-0.016
-0.007
0.002
0.009
0.015
0.021
0.026
0.03
0.032
0.032
0.032
0.03
0.027
0.022
0.016
0.009
0
-0.008
-0.015
-0.022
-0.027
-0.03
-0.032
-0.033
-0.033
-0.033
-0.034
-0.035
-0.035
-0.035
-0.034
-0.033
-0.032
-0.031
-0.031
-0.031
-0.031
-0.031
-0.032
-0.034
-0.038
-0.041
-0.034
-0.014
0.019
0.066
0.124
0.182
0.259
0.315
0.369
0.413
0.432
0.405
0.375
0.32
0.252
0.183
0.116
0.049
-0.014
-0.063
-0.094
-0.108
-0.106
-0.092
-0.08
-0.073
-0.068
-0.067
-0.066
-0.066
-0.065
-0.064
-0.063
-0.063
-0.062
-0.061
-0.06
-0.059
-0.058
-0.058
-0.057
-0.055
-0.051
-0.045
-0.037
-0.027
-0.018
-0.009
-0.001
0.007
0.016
0.025
0.034
0.044
0.054
0.063
0.07
0.076
0.083
0.086
0.088
0.088
0.089
0.087
0.086
0.085
0.084
0.082
0.079
0.076
0.067
0.063
0.057
0.051
0.043
0.039
0.028
0.018
0.007
-0.004
-0.013
-0.022
-0.03
-0.04
-0.048
-0.056
-0.064
-0.069
-0.073
-0.076
-0.077
-0.076
-0.076
-0.074
-0.073
-0.072
-0.072
-0.072
-0.072
-0.071
-0.072
-0.07
-0.069
-0.068
-0.068
-0.067
-0.067
-0.066
-0.066
-0.065
-0.063
-0.062
-0.061
-0.061
-0.06
-0.059
-0.059
-0.058
-0.058
-0.057
-0.057
-0.056
-0.055
-0.055
-0.055
-0.056
-0.055
-0.054
-0.054
-0.053
-0.052
-0.052
-0.052
-0.051
-0.05
-0.05
-0.05
-0.05
-0.049
-0.049
-0.049
-0.048
-0.048
-0.047
-0.044
-0.038
-0.031
-0.022
-0.012
-0.003
0.005
0.012
0.017
0.02
0.021
0.022
0.022
0.02
0.016
0.011
0.005
-0.002
-0.009
-0.017
-0.025
-0.032
-0.038
-0.041
-0.042
-0.044
-0.044
-0.045
-0.046
-0.046
-0.046
-0.045
-0.044
-0.044
-0.042
-0.042
-0.041
-0.041
-0.041
-0.042
-0.044
-0.045
-0.049
-0.052
-0.045
-0.026
0.007
0.054
0.11
0.169
0.227
0.284
0.34
0.386
0.383
0.38
0.351
0.298
0.23
0.187
0.118
0.051
-0.014
-0.063
-0.094
-0.108
-0.106
-0.094
-0.081
-0.074
-0.07
-0.068
-0.067
-0.066
-0.065
-0.064
-0.064
-0.063
-0.063
-0.062
-0.061
-0.06
-0.059
-0.058
-0.057
-0.055
-0.052
-0.046
-0.035
-0.026
-0.016
-0.007
0.002
0.008
0.016
0.025
0.034
0.043
0.054
0.064
0.072
0.079
0.084
0.087
0.088
0.089
0.09
0.091
0.091
0.091
0.091
0.089
0.085
0.082
0.078
0.074
0.068
0.063
0.056
0.049
0.037
0.027
0.016
0.006
-0.003
-0.011
-0.02
-0.028
-0.036
-0.045
-0.052
-0.058
-0.062
-0.064
-0.065
-0.065
-0.064
-0.063
-0.062
-0.06
-0.059
-0.058
-0.057
-0.056
-0.055
-0.054
-0.053
-0.053
-0.052
-0.052
-0.051
-0.051
-0.051
-0.051
-0.052
-0.051
-0.05
-0.05
-0.049
-0.048
-0.047
-0.047
-0.046
-0.045
-0.046
-0.046
-0.045
-0.044
-0.044
-0.043
-0.042
-0.042
-0.041
-0.041
-0.039
-0.038
-0.038
-0.037
-0.036
-0.036
-0.037
-0.037
-0.037
-0.037
-0.037
-0.036
-0.034
-0.032
-0.028
-0.022
-0.015
-0.007
0.001
0.01
0.017
0.023
0.029
0.033
0.035
0.035
0.036
0.034
0.03
0.027
0.022
0.014
0.005
-0.003
-0.014
-0.021
-0.027
-0.03
-0.032
-0.03
-0.03
-0.03
-0.029
-0.028
-0.028
-0.027
-0.026
-0.027
-0.027
-0.027
-0.027
-0.027
-0.026
-0.025
-0.026
-0.027
-0.03
-0.035
-0.029
-0.01
0.02
0.065
0.122
0.18
0.238
0.294
0.349
0.395
0.418
0.415
0.388
0.336
0.269
0.2
0.133
0.066
0.003
-0.048
-0.081
-0.096
-0.095
-0.082
-0.07
-0.061
-0.057
-0.057
-0.057
-0.056
-0.056
-0.055
-0.054
-0.053
-0.053
-0.052
-0.051
-0.05
-0.05
-0.049
-0.046
-0.044
-0.041
-0.035
-0.028
-0.021
-0.012
-0.003
0.006
0.014
0.024
0.034
0.043
0.052
0.062
0.071
0.078
0.084
0.089
0.091
0.093
0.094
0.095
0.097
0.098
0.098
0.097
0.095
0.092
0.089
0.085
0.081
0.075
0.068
0.06
0.051
0.04
0.03
0.02
0.009
-0.001
-0.009
-0.017
-0.026
-0.034
-0.044
-0.053
-0.059
-0.062
-0.064
-0.064
-0.064
-0.064
-0.065
-0.064
-0.065
-0.064
-0.063
-0.062
-0.063
-0.062
-0.06
-0.061
-0.06
-0.058
-0.058
-0.058
-0.057
-0.056
-0.056
-0.056
-0.055
-0.055
-0.055
-0.054
-0.053
-0.051
-0.051
-0.049
-0.049
-0.049
-0.049
-0.048
-0.048
-0.048
-0.047
-0.047
-0.048
-0.048
-0.047
-0.047
-0.046
-0.046
-0.045
-0.043
-0.041
-0.04
-0.039
-0.039
-0.04
-0.041
-0.041
-0.041
-0.039
-0.036
-0.03
-0.023
-0.015
-0.006
0.003
0.01
0.017
0.023
0.027
0.029
0.029
0.028
0.025
0.022
0.016
0.011
0.004
-0.004
-0.013
-0.021
-0.028
-0.034
-0.038
-0.04
-0.041
-0.041
-0.041
-0.041
-0.04
-0.04
-0.04
-0.04
-0.041
-0.041
-0.041
-0.041
-0.04
-0.039
-0.038
-0.037
-0.037
-0.04
-0.044
-0.039
-0.022
0.008
0.052
0.108
0.166
0.224
0.281
0.337
0.383
0.382
0.38
0.353
0.302
0.236
0.194
0.126
0.059
-0.007
-0.058
-0.091
-0.107
-0.107
-0.095
-0.082
-0.074
-0.07
-0.069
-0.069
-0.068
-0.068
-0.068
-0.066
-0.064
-0.063
-0.062
-0.062
-0.062
-0.063
-0.062
-0.061
-0.059
-0.054
-0.048
-0.041
-0.033
-0.024
-0.016
-0.007
0.001
0.011
0.022
0.032
0.042
0.053
0.062
0.068
0.073
0.078
0.08
0.081
0.083
0.085
0.085
0.085
0.084
0.083
0.081
0.079
0.076
0.073
0.068
0.062
0.056
0.049
0.04
0.029
0.019
0.008
-0.003
-0.012
-0.021
-0.03
-0.039
-0.047
-0.056
-0.064
-0.069
-0.073
-0.075
-0.076
-0.075
-0.075
-0.076
-0.076
-0.075
-0.074
-0.073
-0.071
-0.069
-0.068
-0.066
-0.066
-0.066
-0.067
-0.067
-0.067
-0.066
-0.065
-0.063
-0.063
-0.062
-0.062
-0.062
-0.061
-0.06
-0.059
-0.059
-0.057
-0.056
-0.055
-0.054
-0.053
-0.053
-0.053
-0.053
-0.053
-0.053
-0.053
-0.053
-0.052
-0.051
-0.051
-0.049
-0.047
-0.047
-0.047
-0.047
-0.047
-0.047
-0.047
-0.046
-0.045
-0.043
-0.039
-0.034
-0.028
-0.02
-0.011
-0.001
0.006
0.013
0.019
0.023
0.025
0.025
0.025
0.024
0.019
0.013
0.007
-0.001
-0.01
-0.018
-0.026
-0.032
-0.037
-0.041
-0.042
-0.042
-0.041
-0.041
-0.04
-0.039
-0.039
-0.038
-0.038
-0.038
-0.038
-0.038
-0.039
-0.04
-0.039
-0.038
-0.037
-0.037
-0.04
-0.044
-0.039
-0.022
0.03
0.074
0.13
0.188
0.245
0.278
0.332
0.379
0.378
0.378
0.353
0.305
0.238
0.198
0.13
0.063
-0.002
-0.053
-0.088
-0.105
-0.104
-0.092
-0.078
-0.069
-0.063
-0.061
-0.061
-0.061
-0.061
-0.061
-0.061
-0.06
-0.057
-0.056
-0.055
-0.054
-0.054
-0.055
-0.053
-0.05
-0.046
-0.039
-0.03
-0.021
-0.012
-0.002
0.007
0.014
0.022
0.031
0.041
0.05
0.061
0.07
0.077
0.083
0.088
0.091
0.092
0.094
0.096
0.096
0.095
0.094
0.093
0.091
0.088
0.086
0.082
0.077
0.071
0.065
0.055
0.047
0.037
0.028
0.018
0.011
0.001
-0.008
-0.017
-0.026
-0.033
-0.041
-0.048
-0.054
-0.057
-0.058
-0.059
-0.059
-0.058
-0.059
-0.06
-0.06
-0.058
-0.058
-0.057
-0.055
-0.054
-0.053
-0.052
-0.052
-0.05
-0.049
-0.049
-0.048
-0.046
-0.047
-0.047
-0.046
-0.046
-0.045
-0.045
-0.044
-0.044
-0.044
-0.044
-0.044
-0.044
-0.043
-0.042
-0.042
-0.042
-0.041
-0.041
-0.04
-0.04
-0.039
-0.039
-0.038
-0.038
-0.038
-0.036
-0.036
-0.035
-0.034
-0.033
-0.032
-0.032
-0.031
-0.031
-0.029
-0.026
-0.02
-0.013
-0.003
0.006
0.015
0.022
0.027
0.031
0.034
0.036
0.036
0.036
0.035
0.032
0.029
0.024
0.018
0.01
0.001
-0.008
-0.015
-0.021
-0.026
-0.03
-0.031
-0.033
-0.032
-0.031
-0.03
-0.03
-0.029
-0.03
-0.03
-0.03
-0.029
-0.029
-0.029
-0.029
-0.028
-0.028
-0.029
-0.032
-0.036
-0.031
-0.016
0.013
0.056
0.112
0.169
0.226
0.282
0.338
0.386
0.413
0.415
0.391
0.343
0.279
0.211
0.144
0.077
0.011
-0.043
-0.08
-0.099
-0.1
-0.089
-0.076
-0.067
-0.061
-0.059
-0.058
-0.057
-0.057
-0.057
-0.056
-0.055
-0.056
-0.056
-0.055
-0.054
-0.053
-0.052
-0.051
-0.049
-0.046
-0.041
-0.032
-0.022
-0.014
-0.005
0.004
0.011
0.018
0.029
0.039
0.049
0.059
0.069
0.076
0.081
0.086
0.088
0.089
0.09
0.091
0.092
0.093
0.093
0.092
0.09
0.087
0.084
0.081
0.076
0.07
0.063
0.049
0.039
0.029
0.018
0.004
0.001
-0.009
-0.017
-0.027
-0.032
-0.041
-0.05
-0.058
-0.064
-0.067
-0.068
-0.069
-0.069
-0.067
-0.067
-0.067
-0.066
-0.065
-0.065
-0.065
-0.064
-0.062
-0.06
-0.059
-0.059
-0.058
-0.057
-0.057
-0.057
-0.056
-0.056
-0.056
-0.055
-0.055
-0.054
-0.054
-0.054
-0.055
-0.055
-0.055
-0.054
-0.053
-0.052
-0.051
-0.051
-0.051
-0.051
-0.05
-0.049
-0.049
-0.049
-0.049
-0.049
-0.049
-0.049
-0.048
-0.046
-0.045
-0.044
-0.043
-0.043
-0.043
-0.043
-0.043
-0.042
-0.039
-0.034
-0.028
-0.02
-0.011
-0.003
0.004
0.01
0.016
0.021
0.024
0.026
0.027
0.024
0.021
0.016
0.011
0.003
-0.005
-0.013
-0.021
-0.029
-0.035
-0.04
-0.042
-0.043
-0.043
-0.043
-0.043
-0.042
-0.042
-0.043
-0.042
-0.042
-0.042
-0.041
-0.041
-0.041
-0.041
-0.04
-0.04
-0.04
-0.043
-0.048
-0.044
-0.028
0
0.043
0.098
0.157
0.215
0.272
0.326
0.375
0.403
0.406
0.383
0.337
0.273
0.204
0.135
0.068
0.003
-0.051
-0.088
-0.107
-0.11
-0.1
-0.087
-0.078
-0.073
-0.071
-0.07
-0.069
-0.068
-0.068
-0.067
-0.067
-0.067
-0.066
-0.065
-0.064
-0.064
-0.064
-0.063
-0.061
-0.058
-0.052
-0.044
-0.035
-0.026
-0.016
-0.006
0.002
0.011
0.021
0.031
0.04
0.05
0.06
0.068
0.074
0.079
0.082
0.084
0.085
0.087
0.088
0.087
0.086
0.085
0.083
0.081
0.079
0.076
0.072
0.066
0.06
0.052
0.042
0.032
0.021
0.011
0
-0.009
-0.016
-0.024
-0.032
-0.04
-0.048
-0.058
-0.065
-0.07
-0.073
-0.074
-0.074
-0.074
-0.073
-0.072
-0.072
-0.071
-0.069
-0.068
-0.068
-0.066
-0.064
-0.063
-0.063
-0.062
-0.062
-0.063
-0.063
-0.062
-0.061
-0.061
-0.06
-0.059
-0.059
-0.059
-0.058
-0.056
-0.056
-0.055
-0.053
-0.053
-0.053
-0.053
-0.053
-0.054
-0.053
-0.052
-0.052
-0.051
-0.049
-0.047
-0.046
-0.045
-0.044
-0.043
-0.043
-0.043
-0.043
-0.043
-0.043
-0.043
-0.041
-0.04
-0.039
-0.036
-0.031
-0.026
-0.018
-0.009
0
0.009
0.016
0.022
0.027
0.03
0.03
0.03
0.028
0.024
0.019
0.015
0.009
0.002
-0.006
-0.014
-0.022
-0.029
-0.033
-0.036
-0.037
-0.038
-0.039
-0.038
-0.038
-0.037
-0.036
-0.034
-0.033
-0.032
-0.031
-0.031
-0.032
-0.032
-0.033
-0.033
-0.032
-0.034
-0.038
-0.034
-0.02
0.007
0.048
0.103
0.161
0.218
0.275
0.331
0.382
0.413
0.418
0.397
0.352
0.257
0.188
0.119
0.051
-0.017
-0.043
-0.082
-0.102
-0.105
-0.094
-0.08
-0.069
-0.064
-0.061
-0.059
-0.058
-0.056
-0.055
-0.054
-0.054
-0.054
-0.054
-0.054
-0.054
-0.053
-0.052
-0.051
-0.049
-0.045
-0.04
-0.032
-0.022
-0.012
-0.003
0.007
0.015
0.023
0.032
0.043
0.053
0.063
0.073
0.08
0.086
0.091
0.094
0.096
0.098
0.099
0.099
0.099
0.098
0.097
0.094
0.091
0.089
0.086
0.082
0.077
0.071
0.064
0.054
0.044
0.034
0.021
0.012
0.002
-0.006
-0.015
-0.02
-0.03
-0.039
-0.047
-0.053
-0.058
-0.06
-0.06
-0.06
-0.059
-0.057
-0.057
-0.057
-0.056
-0.055
-0.055
-0.054
-0.053
-0.052
-0.052
-0.051
-0.051
-0.051
-0.051
-0.05
-0.048
-0.047
-0.047
-0.046
-0.046
-0.046
-0.045
-0.044
-0.043
-0.043
-0.042
-0.042
-0.042
-0.042
-0.042
-0.041
-0.04
-0.039
-0.039
-0.038
-0.039
-0.039
-0.038
-0.038
-0.038
-0.038
-0.036
-0.035
-0.034
-0.034
-0.033
-0.034
-0.034
-0.033
-0.032
-0.03
-0.028
-0.023
-0.017
-0.01
-0.002
0.007
0.013
0.019
0.024
0.028
0.031
0.033
0.034
0.032
0.03
0.025
0.018
0.01
0.002
-0.006
-0.015
-0.022
-0.028
-0.032
-0.035
-0.036
-0.036
-0.037
-0.035
-0.035
-0.036
-0.035
-0.034
-0.034
-0.033
-0.031
-0.031
-0.03
-0.029
-0.029
-0.03
-0.031
-0.035
-0.04
-0.038
-0.023
0.003
0.043
0.097
0.155
0.213
0.27
0.327
0.377
0.408
0.414
0.394
0.349
0.286
0.217
0.148
0.08
0.014
-0.042
-0.081
-0.102
-0.106
-0.095
-0.082
-0.072
-0.066
-0.065
-0.065
-0.064
-0.064
-0.064
-0.063
-0.062
-0.062
-0.062
-0.061
-0.061
-0.061
-0.06
-0.059
-0.057
-0.054
-0.048
-0.04
-0.031
-0.021
-0.011
0
0.008
0.016
0.025
0.034
0.041
0.052
0.061
0.068
0.074
0.079
0.084
0.087
0.089
0.091
0.091
0.091
0.09
0.089
0.087
0.084
0.081
0.078
0.073
0.067
0.061
0.054
0.046
0.035
0.025
0.01
-0
-0.01
-0.019
-0.028
-0.032
-0.041
-0.05
-0.057
-0.064
-0.069
-0.072
-0.073
-0.074
-0.073
-0.073
-0.072
-0.072
-0.07
-0.069
-0.068
-0.068
-0.067
-0.066
-0.067
-0.066
-0.064
-0.063
-0.063
-0.063
-0.062
-0.063
-0.062
-0.062
-0.061
-0.061
-0.06
-0.06
-0.059
-0.058
-0.057
-0.056
-0.056
-0.057
-0.057
-0.058
-0.058
-0.058
-0.056
-0.054
-0.054
-0.053
-0.051
-0.051
-0.051
-0.05
-0.05
-0.049
-0.05
-0.05
-0.05
-0.049
-0.049
-0.048
-0.046
-0.045
-0.043
-0.037
-0.03
-0.023
-0.013
-0.004
0.004
0.01
0.016
0.02
0.023
0.024
0.024
0.023
0.02
0.015
0.009
0.002
-0.007
-0.015
-0.023
-0.031
-0.037
-0.041
-0.044
-0.045
-0.044
-0.043
-0.045
-0.045
-0.045
-0.044
-0.043
-0.042
-0.043
-0.042
-0.043
-0.043
-0.042
-0.041
-0.041
-0.041
-0.042
-0.047
-0.046
-0.032
-0.006
0.033
0.087
0.145
0.203
0.26
0.316
0.368
0.401
0.408
0.39
0.346
0.282
0.213
0.146
0.079
0.013
-0.044
-0.085
-0.108
-0.113
-0.103
-0.089
-0.079
-0.072
-0.071
-0.07
-0.069
-0.068
-0.067
-0.065
-0.064
-0.064
-0.064
-0.064
-0.064
-0.063
-0.062
-0.061
-0.059
-0.056
-0.051
-0.044
-0.035
-0.025
-0.016
-0.007
0.002
0.01
0.02
0.03
0.04
0.05
0.06
0.069
0.075
0.08
0.084
0.087
0.088
0.089
0.089
0.089
0.088
0.088
0.086
0.085
0.083
0.08
0.077
0.072
0.065
0.058
0.05
0.04
0.03
0.021
0.01
-0
-0.009
-0.017
-0.026
-0.036
-0.045
-0.053
-0.059
-0.063
-0.065
-0.065
-0.065
-0.065
-0.065
-0.064
-0.063
-0.061
-0.06
-0.059
-0.057
-0.056
-0.056
-0.055
-0.055
-0.055
-0.055
-0.056
-0.055
-0.054
-0.054
-0.054
-0.052
-0.05
-0.05
-0.048
-0.047
-0.047
-0.047
-0.047
-0.047
-0.047
-0.047
-0.047
-0.046
-0.046
-0.046
-0.046
-0.045
-0.046
-0.046
-0.044
-0.044
-0.043
-0.042
-0.04
-0.039
-0.038
-0.037
-0.037
-0.037
-0.036
-0.036
-0.032
-0.031
-0.028
-0.023
-0.016
-0.013
-0.003
0.005
0.013
0.02
0.027
0.032
0.035
0.036
0.036
0.034
0.031
0.026
0.021
0.014
0.007
-0.001
-0.009
-0.016
-0.022
-0.026
-0.028
-0.03
-0.031
-0.031
-0.03
-0.03
-0.03
-0.029
-0.029
-0.029
-0.03
-0.03
-0.03
-0.029
-0.029
-0.028
-0.028
-0.027
-0.03
-0.034
-0.033
-0.021
0.005
0.043
0.096
0.153
0.212
0.268
0.324
0.376
0.41
0.419
0.403
0.362
0.301
0.234
0.165
0.097
0.031
-0.027
-0.068
-0.092
-0.098
-0.089
-0.076
-0.066
-0.059
-0.058
-0.057
-0.055
-0.054
-0.052
-0.051
-0.05
-0.049
-0.05
-0.049
-0.049
-0.049
-0.049
-0.049
-0.048
-0.045
-0.04
-0.033
-0.025
-0.016
-0.007
0.005
0.013
0.022
0.032
0.043
0.05
0.06
0.07
0.078
0.084
0.09
0.093
0.095
0.097
0.098
0.099
0.101
0.101
0.1
0.098
0.095
0.091
0.087
0.084
0.078
0.071
0.064
0.055
0.044
0.033
0.023
0.014
0.004
-0.004
-0.017
-0.026
-0.035
-0.043
-0.052
-0.053
-0.058
-0.061
-0.063
-0.064
-0.064
-0.064
-0.064
-0.064
-0.063
-0.062
-0.062
-0.062
-0.06
-0.06
-0.06
-0.06
-0.059
-0.058
-0.057
-0.057
-0.056
-0.055
-0.054
-0.054
-0.053
-0.053
-0.052
-0.052
-0.05
-0.05
-0.051
-0.049
-0.048
-0.047
-0.046
-0.046
-0.046
-0.047
-0.046
-0.046
-0.045
-0.044
-0.043
-0.042
-0.042
-0.042
-0.041
-0.042
-0.043
-0.043
-0.042
-0.042
-0.042
-0.042
-0.041
-0.041
-0.039
-0.034
-0.027
-0.019
-0.011
-0.002
0.006
0.012
0.018
0.023
0.027
0.028
0.029
0.028
0.026
0.021
0.014
0.006
-0.002
-0.012
-0.021
-0.028
-0.035
-0.039
-0.041
-0.043
-0.044
-0.044
-0.043
-0.042
-0.04
-0.039
-0.037
-0.037
-0.037
-0.037
-0.037
-0.039
-0.039
-0.039
-0.039
-0.038
-0.04
-0.044
-0.043
-0.032
-0.008
0.029
0.081
0.138
0.196
0.252
0.308
0.362
0.398
0.408
0.393
0.353
0.291
0.223
0.156
0.089
0.022
-0.038
-0.08
-0.105
-0.111
-0.103
-0.089
-0.078
-0.071
-0.068
-0.068
-0.066
-0.065
-0.065
-0.063
-0.062
-0.063
-0.063
-0.062
-0.062
-0.061
-0.061
-0.06
-0.059
-0.056
-0.05
-0.043
-0.034
-0.025
-0.016
-0.006
0.002
0.011
0.02
0.034
0.042
0.052
0.062
0.071
0.073
0.078
0.081
0.082
0.083
0.084
0.085
0.085
0.085
0.084
0.083
0.08
0.076
0.073
0.069
0.064
0.058
0.052
0.043
0.033
0.022
0.013
0.002
-0.008
-0.016
-0.027
-0.036
-0.044
-0.053
-0.06
-0.064
-0.069
-0.071
-0.072
-0.073
-0.072
-0.071
-0.071
-0.071
-0.069
-0.068
-0.068
-0.067
-0.066
-0.067
-0.068
-0.068
-0.067
-0.067
-0.066
-0.066
-0.064
-0.063
-0.062
-0.061
-0.059
-0.058
-0.058
-0.058
-0.057
-0.057
-0.057
-0.057
-0.056
-0.055
-0.055
-0.054
-0.054
-0.054
-0.054
-0.053
-0.052
-0.052
-0.051
-0.051
-0.052
-0.052
-0.05
-0.05
-0.049
-0.048
-0.047
-0.046
-0.045
-0.044
-0.043
-0.042
-0.039
-0.034
-0.027
-0.019
-0.011
-0.002
0.006
0.011
0.016
0.021
0.024
0.025
0.026
0.026
0.024
0.02
0.015
0.008
-0.001
-0.01
-0.018
-0.026
-0.031
-0.035
-0.037
-0.038
-0.038
-0.039
-0.039
-0.039
-0.04
-0.04
-0.041
-0.04
-0.04
-0.039
-0.038
-0.037
-0.036
-0.036
-0.036
-0.036
-0.037
-0.042
-0.042
-0.032
-0.009
0.029
0.079
0.137
0.196
0.253
0.31
0.363
0.4
0.412
0.398
0.36
0.3
0.232
0.164
0.095
0.028
-0.031
-0.074
-0.1
-0.107
-0.099
-0.085
-0.074
-0.067
-0.064
-0.064
-0.063
-0.062
-0.062
-0.062
-0.062
-0.062
-0.061
-0.06
-0.059
-0.059
-0.058
-0.057
-0.056
-0.052
-0.046
-0.039
-0.03
-0.02
-0.011
-0.002
0.005
0.013
0.022
0.035
0.045
0.056
0.066
0.075
0.078
0.083
0.087
0.089
0.092
0.093
0.095
0.095
0.094
0.093
0.092
0.09
0.088
0.086
0.083
0.078
0.071
0.064
0.054
0.043
0.033
0.024
0.014
0.004
-0.004
-0.017
-0.026
-0.035
-0.043
-0.051
-0.054
-0.06
-0.063
-0.064
-0.064
-0.063
-0.062
-0.062
-0.062
-0.06
-0.059
-0.059
-0.058
-0.057
-0.057
-0.057
-0.056
-0.055
-0.055
-0.054
-0.053
-0.052
-0.051
-0.05
-0.049
-0.048
-0.047
-0.046
-0.045
-0.042
-0.042
-0.041
-0.04
-0.04
-0.042
-0.042
-0.042
-0.042
-0.043
-0.042
-0.041
-0.041
-0.041
-0.04
-0.039
-0.038
-0.038
-0.036
-0.036
-0.035
-0.034
-0.034
-0.034
-0.034
-0.034
-0.033
-0.032
-0.029
-0.024
-0.013
-0.006
0.002
0.012
0.019
0.021
0.026
0.031
0.033
0.035
0.035
0.035
0.032
0.028
0.023
0.016
0.008
-0
-0.009
-0.016
-0.022
-0.025
-0.028
-0.029
-0.03
-0.031
-0.031
-0.03
-0.029
-0.028
-0.027
-0.027
-0.029
-0.03
-0.029
-0.029
-0.029
-0.028
-0.027
-0.027
-0.029
-0.034
-0.034
-0.024
-0.002
0.035
0.086
0.143
0.201
0.258
0.314
0.368
0.405
0.417
0.403
0.365
0.305
0.236
0.169
0.103
0.037
-0.023
-0.067
-0.094
-0.101
-0.095
-0.081
-0.069
-0.062
-0.061
-0.061
-0.061
-0.061
-0.061
-0.061
-0.059
-0.058
-0.057
-0.056
-0.055
-0.055
-0.055
-0.055
-0.054
-0.051
-0.046
-0.039
-0.029
-0.02
-0.011
-0.002
0.006
0.015
0.024
0.038
0.048
0.058
0.069
0.078
0.08
0.085
0.089
0.09
0.092
0.093
0.093
0.092
0.091
0.09
0.088
0.085
0.082
0.079
0.076
0.071
0.065
0.059
0.05
0.039
0.028
0.018
0.007
-0.004
-0.012
-0.018
-0.026
-0.035
-0.043
-0.052
-0.06
-0.065
-0.068
-0.069
-0.068
-0.068
-0.067
-0.065
-0.065
-0.065
-0.064
-0.064
-0.064
-0.063
-0.063
-0.063
-0.063
-0.063
-0.062
-0.063
-0.062
-0.06
-0.06
-0.06
-0.059
-0.058
-0.057
-0.057
-0.056
-0.057
-0.058
-0.058
-0.057
-0.057
-0.055
-0.055
-0.055
-0.055
-0.054
-0.053
-0.052
-0.051
-0.051
-0.05
-0.05
-0.05
-0.05
-0.049
-0.048
-0.047
-0.047
-0.047
-0.047
-0.047
-0.046
-0.045
-0.043
-0.041
-0.037
-0.032
-0.025
-0.017
-0.007
0.002
0.008
0.014
0.019
0.021
0.022
0.022
0.021
0.019
0.014
0.009
0.002
-0.005
-0.013
-0.021
-0.029
-0.036
-0.041
-0.044
-0.045
-0.045
-0.046
-0.046
-0.046
-0.047
-0.048
-0.047
-0.047
-0.046
-0.045
-0.044
-0.043
-0.043
-0.042
-0.04
-0.04
-0.041
-0.045
-0.047
-0.038
-0.016
0.019
0.068
0.126
0.184
0.241
0.297
0.351
0.389
0.403
0.392
0.355
0.297
0.23
0.162
0.095
0.029
-0.032
-0.077
-0.104
-0.11
-0.104
-0.09
-0.078
-0.07
-0.07
-0.07
-0.07
-0.069
-0.068
-0.068
-0.067
-0.066
-0.067
-0.066
-0.065
-0.065
-0.063
-0.061
-0.06
-0.059
-0.054
-0.047
-0.039
-0.03
-0.021
-0.011
-0.002
0.005
0.014
0.024
0.034
0.044
0.055
0.065
0.072
0.077
0.081
0.083
0.083
0.085
0.086
0.086
0.086
0.085
0.083
0.08
0.077
0.075
0.071
0.066
0.06
0.054
0.045
0.035
0.025
0.014
0.004
-0.006
-0.016
-0.023
-0.03
-0.037
-0.045
-0.053
-0.06
-0.066
-0.07
-0.071
-0.071
-0.069
-0.068
-0.068
-0.068
-0.068
-0.069
-0.069
-0.069
-0.068
-0.066
-0.065
-0.065
-0.064
-0.063
-0.063
-0.062
-0.061
-0.06
-0.059
-0.058
-0.057
-0.056
-0.055
-0.055
-0.054
-0.053
-0.053
-0.052
-0.05
-0.051
-0.051
-0.05
-0.049
-0.049
-0.048
-0.048
-0.048
-0.049
-0.049
-0.048
-0.047
-0.046
-0.045
-0.044
-0.043
-0.043
-0.042
-0.042
-0.042
-0.041
-0.041
-0.041
-0.039
-0.034
-0.029
-0.021
-0.012
-0.003
0.007
0.015
0.022
0.027
0.03
0.031
0.03
0.029
0.027
0.023
0.018
0.012
0.004
-0.005
-0.014
-0.022
-0.028
-0.032
-0.035
-0.036
-0.036
-0.037
-0.037
-0.037
-0.036
-0.035
-0.034
-0.033
-0.033
-0.033
-0.034
-0.034
-0.033
-0.032
-0.031
-0.03
-0.031
-0.035
-0.037
-0.029
-0.008
0.026
0.075
0.132
0.19
0.247
0.303
0.358
0.399
0.415
0.406
0.372
0.29
0.222
0.154
0.088
0.021
-0.015
-0.062
-0.091
-0.102
-0.096
-0.083
-0.071
-0.062
-0.058
-0.057
-0.056
-0.055
-0.055
-0.054
-0.053
-0.052
-0.051
-0.05
-0.05
-0.049
-0.048
-0.047
-0.046
-0.043
-0.039
-0.033
-0.024
-0.014
-0.005
0.004
0.013
0.021
0.03
0.04
0.05
0.059
0.068
0.075
0.081
0.086
0.09
0.093
0.097
0.099
0.101
0.101
0.1
0.099
0.097
0.095
0.092
0.09
0.086
0.082
0.076
0.069
0.061
0.051
0.041
0.03
0.02
0.01
0.001
-0.006
-0.013
-0.023
-0.032
-0.044
-0.051
-0.057
-0.06
-0.061
-0.058
-0.059
-0.058
-0.057
-0.056
-0.055
-0.054
-0.053
-0.052
-0.051
-0.051
-0.051
-0.051
-0.051
-0.051
-0.05
-0.048
-0.046
-0.045
-0.044
-0.044
-0.044
-0.045
-0.045
-0.044
-0.043
-0.042
-0.042
-0.042
-0.041
-0.042
-0.042
-0.041
-0.04
-0.04
-0.04
-0.039
-0.039
-0.039
-0.038
-0.038
-0.038
-0.038
-0.037
-0.037
-0.037
-0.036
-0.035
-0.035
-0.034
-0.034
-0.034
-0.033
-0.031
-0.026
-0.02
-0.013
-0.005
0.003
0.012
0.019
0.025
0.03
0.034
0.034
0.035
0.034
0.032
0.028
0.023
0.016
0.008
-0
-0.009
-0.018
-0.024
-0.029
-0.033
-0.035
-0.036
-0.036
-0.036
-0.036
-0.036
-0.035
-0.034
-0.035
-0.035
-0.034
-0.034
-0.034
-0.034
-0.035
-0.034
-0.033
-0.035
-0.038
-0.038
-0.03
-0.009
0.025
0.073
0.129
0.187
0.244
0.301
0.355
0.396
0.413
0.405
0.372
0.315
0.247
0.179
0.11
0.042
-0.021
-0.067
-0.096
-0.107
-0.102
-0.088
-0.076
-0.068
-0.064
-0.064
-0.064
-0.064
-0.064
-0.063
-0.062
-0.06
-0.06
-0.059
-0.059
-0.059
-0.059
-0.059
-0.058
-0.055
-0.051
-0.044
-0.036
-0.027
-0.017
-0.007
0.002
0.01
0.019
0.028
0.038
0.047
0.057
0.068
0.075
0.08
0.085
0.088
0.086
0.087
0.088
0.089
0.089
0.089
0.087
0.085
0.082
0.079
0.075
0.07
0.064
0.058
0.049
0.039
0.028
0.018
0.007
-0.003
-0.012
-0.02
-0.029
-0.038
-0.046
-0.054
-0.063
-0.07
-0.073
-0.076
-0.076
-0.075
-0.073
-0.072
-0.07
-0.07
-0.069
-0.069
-0.069
-0.068
-0.068
-0.068
-0.067
-0.066
-0.066
-0.066
-0.066
-0.066
-0.066
-0.066
-0.066
-0.065
-0.065
-0.064
-0.063
-0.062
-0.061
-0.061
-0.059
-0.059
-0.059
-0.057
-0.055
-0.055
-0.054
-0.054
-0.054
-0.055
-0.054
-0.053
-0.052
-0.051
-0.051
-0.05
-0.05
-0.051
-0.051
-0.05
-0.05
-0.05
-0.05
-0.049
-0.049
-0.046
-0.043
-0.036
-0.028
-0.02
-0.011
-0.003
0.005
0.01
0.016
0.02
0.021
0.02
0.019
0.017
0.013
0.008
0.002
-0.005
-0.013
-0.021
-0.029
-0.036
-0.041
-0.044
-0.046
-0.046
-0.046
-0.045
-0.045
-0.044
-0.043
-0.042
-0.041
-0.04
-0.039
-0.037
-0.036
-0.037
-0.037
-0.038
-0.04
-0.042
-0.047
-0.049
-0.042
-0.021
0.013
0.062
0.12
0.178
0.235
0.291
0.346
0.389
0.407
0.399
0.368
0.313
0.244
0.176
0.109
0.043
-0.02
-0.068
-0.098
-0.11
-0.105
-0.092
-0.079
-0.073
-0.07
-0.069
-0.068
-0.067
-0.065
-0.064
-0.063
-0.063
-0.062
-0.061
-0.061
-0.06
-0.061
-0.061
-0.059
-0.056
-0.051
-0.043
-0.034
-0.025
-0.016
-0.007
0.002
0.01
0.019
0.03
0.039
0.048
0.058
0.068
0.075
0.08
0.085
0.089
0.09
0.09
0.092
0.091
0.089
0.087
0.086
0.083
0.08
0.078
0.075
0.071
0.066
0.061
0.053
0.044
0.033
0.023
0.013
0.002
-0.007
-0.016
-0.025
-0.034
-0.042
-0.05
-0.058
-0.064
-0.067
-0.067
-0.068
-0.067
-0.064
-0.062
-0.062
-0.062
-0.061
-0.061
-0.061
-0.06
-0.06
-0.06
-0.059
-0.057
-0.056
-0.054
-0.053
-0.052
-0.052
-0.053
-0.053
-0.052
-0.052
-0.051
-0.051
-0.049
-0.047
-0.046
-0.045
-0.043
-0.043
-0.043
-0.043
-0.043
-0.044
-0.045
-0.045
-0.044
-0.043
-0.042
-0.041
-0.04
-0.04
-0.039
-0.038
-0.037
-0.036
-0.035
-0.035
-0.035
-0.035
-0.034
-0.033
-0.031
-0.028
-0.022
-0.015
-0.007
0.001
0.01
0.018
0.024
0.029
0.034
0.036
0.036
0.035
0.034
0.03
0.025
0.019
0.011
0.002
-0.007
-0.015
-0.022
-0.027
-0.03
-0.032
-0.033
-0.033
-0.033
-0.032
-0.032
-0.031
-0.03
-0.03
-0.03
-0.03
-0.03
-0.03
-0.029
-0.029
-0.028
-0.027
-0.027
-0.03
-0.033
-0.026
-0.007
0.026
0.073
0.129
0.186
0.243
0.3
0.356
0.399
0.418
0.412
0.38
0.297
0.23
0.162
0.094
0.026
-0.007
-0.055
-0.085
-0.098
-0.094
-0.082
-0.07
-0.062
-0.057
-0.055
-0.054
-0.053
-0.053
-0.053
-0.052
-0.051
-0.05
-0.049
-0.048
-0.047
-0.048
-0.048
-0.047
-0.045
-0.04
-0.033
-0.025
-0.015
-0.006
0.003
0.012
0.02
0.029
0.039
0.049
0.058
0.067
0.076
0.083
0.087
0.091
0.094
0.095
0.096
0.097
0.098
0.098
0.098
0.096
0.095
0.092
0.089
0.085
0.08
0.073
0.065
0.057
0.047
0.036
0.026
0.016
0.006
-0.003
-0.012
-0.021
-0.03
-0.039
-0.046
-0.052
-0.057
-0.06
-0.063
-0.063
-0.063
-0.063
-0.063
-0.061
-0.062
-0.061
-0.06
-0.059
-0.057
-0.056
-0.055
-0.054
-0.054
-0.055
-0.055
-0.055
-0.055
-0.054
-0.054
-0.053
-0.052
-0.053
-0.053
-0.052
-0.051
-0.051
-0.05
-0.05
-0.049
-0.049
-0.049
-0.048
-0.048
-0.048
-0.047
-0.046
-0.046
-0.044
-0.043
-0.043
-0.043
-0.043
-0.043
-0.043
-0.042
-0.042
-0.041
-0.04
-0.04
-0.04
-0.039
-0.038
-0.036
-0.032
-0.026
-0.02
-0.013
-0.005
0.003
0.01
0.016
0.021
0.025
0.027
0.027
0.027
0.025
0.021
0.016
0.01
0.003
-0.005
-0.014
-0.021
-0.027
-0.032
-0.035
-0.037
-0.038
-0.039
-0.039
-0.04
-0.04
-0.039
-0.039
-0.038
-0.039
-0.038
-0.038
-0.038
-0.038
-0.038
-0.04
-0.039
-0.04
-0.043
-0.046
-0.037
-0.019
0.013
0.06
0.118
0.177
0.234
0.29
0.345
0.389
0.409
0.404
0.375
0.321
0.253
0.183
0.114
0.048
-0.015
-0.064
-0.095
-0.109
-0.106
-0.093
-0.081
-0.074
-0.07
-0.069
-0.068
-0.067
-0.067
-0.066
-0.066
-0.065
-0.064
-0.063
-0.062
-0.062
-0.062
-0.061
-0.06
-0.057
-0.053
-0.046
-0.038
-0.029
-0.021
-0.011
-0.002
0.006
0.015
0.025
0.034
0.043
0.053
0.062
0.069
0.074
0.078
0.084
0.086
0.087
0.089
0.091
0.088
0.087
0.085
0.082
0.079
0.075
0.071
0.066
0.06
0.054
0.045
0.036
0.025
0.016
0.007
-0.002
-0.01
-0.019
-0.027
-0.037
-0.047
-0.056
-0.064
-0.071
-0.074
-0.074
-0.074
-0.073
-0.071
-0.07
-0.071
-0.07
-0.069
-0.068
-0.067
-0.066
-0.066
-0.066
-0.066
-0.066
-0.064
-0.064
-0.063
-0.062
-0.062
-0.062
-0.062
-0.061
-0.06
-0.059
-0.059
-0.058
-0.058
-0.058
-0.058
-0.058
-0.058
-0.058
-0.058
-0.056
-0.056
-0.055
-0.053
-0.052
-0.053
-0.053
-0.052
-0.052
-0.051
-0.049
-0.047
-0.046
-0.045
-0.045
-0.045
-0.044
-0.044
-0.044
-0.043
-0.041
-0.037
-0.028
-0.02
-0.011
-0.003
0.005
0.009
0.015
0.02
0.023
0.025
0.025
0.025
0.023
0.02
0.015
0.009
0.003
-0.005
-0.013
-0.02
-0.026
-0.031
-0.034
-0.037
-0.038
-0.039
-0.039
-0.039
-0.039
-0.038
-0.037
-0.037
-0.036
-0.036
-0.036
-0.036
-0.035
-0.035
-0.034
-0.034
-0.035
-0.039
-0.022
-0.015
0.004
0.036
0.082
0.117
0.174
0.231
0.287
0.343
0.389
0.411
0.407
0.378
0.325
0.258
0.191
0.124
0.057
-0.008
-0.058
-0.09
-0.105
-0.103
-0.09
-0.079
-0.07
-0.066
-0.065
-0.064
-0.065
-0.064
-0.063
-0.061
-0.06
-0.057
-0.057
-0.055
-0.056
-0.055
-0.055
-0.055
-0.053
-0.048
-0.041
-0.032
-0.022
-0.012
-0.003
0.005
0.013
0.022
0.03
0.039
0.049
0.059
0.068
0.076
0.082
0.086
0.089
0.091
0.092
0.094
0.095
0.095
0.093
0.092
0.09
0.088
0.086
0.083
0.079
0.073
0.066
0.058
0.048
0.038
0.028
0.017
0.007
-0.003
-0.011
-0.02
-0.029
-0.038
-0.046
-0.053
-0.059
-0.062
-0.063
-0.063
-0.062
-0.06
-0.059
-0.058
-0.058
-0.058
-0.056
-0.055
-0.054
-0.051
-0.05
-0.05
-0.05
-0.05
-0.051
-0.052
-0.051
-0.051
-0.051
-0.05
-0.049
-0.049
-0.049
-0.048
-0.047
-0.046
-0.046
-0.045
-0.045
-0.045
-0.045
-0.044
-0.043
-0.043
-0.042
-0.04
-0.039
-0.039
-0.038
-0.038
-0.038
-0.038
-0.037
-0.036
-0.035
-0.035
-0.035
-0.034
-0.035
-0.035
-0.034
-0.034
-0.033
-0.03
-0.024
-0.017
-0.009
-0
0.009
0.017
0.023
0.028
0.032
0.034
0.034
0.035
0.035
0.032
0.027
0.021
0.014
0.005
-0.004
-0.012
-0.019
-0.025
-0.029
-0.031
-0.032
-0.032
-0.031
-0.031
-0.03
-0.028
-0.028
-0.028
-0.028
-0.028
-0.028
-0.028
-0.027
-0.027
-0.026
-0.026
-0.026
-0.029
-0.011
-0.005
0.012
0.042
0.087
0.119
0.177
0.235
0.291
0.345
0.392
0.416
0.414
0.387
0.337
0.27
0.202
0.134
0.067
0.003
-0.048
-0.082
-0.098
-0.098
-0.086
-0.074
-0.065
-0.06
-0.059
-0.058
-0.055
-0.055
-0.054
-0.053
-0.052
-0.054
-0.053
-0.052
-0.053
-0.052
-0.051
-0.051
-0.049
-0.045
-0.039
-0.032
-0.022
-0.013
-0.004
0.004
0.012
0.02
0.029
0.038
0.048
0.057
0.066
0.073
0.079
0.083
0.087
0.088
0.089
0.09
0.091
0.09
0.09
0.089
0.088
0.085
0.082
0.079
0.075
0.07
0.063
0.056
0.046
0.035
0.024
0.014
0.005
-0.004
-0.013
-0.021
-0.031
-0.04
-0.05
-0.058
-0.065
-0.069
-0.071
-0.071
-0.071
-0.07
-0.069
-0.068
-0.067
-0.065
-0.064
-0.063
-0.063
-0.062
-0.061
-0.061
-0.06
-0.059
-0.06
-0.061
-0.061
-0.061
-0.06
-0.06
-0.058
-0.058
-0.058
-0.058
-0.057
-0.057
-0.057
-0.056
-0.055
-0.054
-0.054
-0.054
-0.053
-0.053
-0.052
-0.052
-0.053
-0.053
-0.053
-0.052
-0.051
-0.05
-0.05
-0.05
-0.05
-0.049
-0.048
-0.047
-0.047
-0.047
-0.046
-0.046
-0.044
-0.041
-0.035
-0.029
-0.021
-0.012
-0.003
0.005
0.011
0.016
0.02
0.022
0.023
0.023
0.017
0.013
0.008
0.002
-0.005
-0.008
-0.016
-0.024
-0.031
-0.037
-0.04
-0.042
-0.042
-0.043
-0.043
-0.043
-0.043
-0.042
-0.041
-0.04
-0.04
-0.041
-0.041
-0.042
-0.044
-0.044
-0.042
-0.042
-0.042
-0.045
-0.029
-0.024
-0.007
0.024
0.068
0.105
0.162
0.219
0.276
0.331
0.378
0.402
0.401
0.374
0.324
0.258
0.19
0.123
0.057
-0.009
-0.062
-0.097
-0.114
-0.114
-0.102
-0.089
-0.078
-0.073
-0.072
-0.071
-0.07
-0.07
-0.069
-0.067
-0.067
-0.066
-0.066
-0.065
-0.065
-0.064
-0.065
-0.064
-0.063
-0.059
-0.052
-0.044
-0.035
-0.025
-0.015
-0.007
0.002
0.011
0.021
0.029
0.039
0.048
0.057
0.063
0.068
0.073
0.076
0.078
0.079
0.083
0.083
0.084
0.084
0.083
0.079
0.077
0.073
0.07
0.067
0.062
0.057
0.049
0.04
0.03
0.02
0.01
0
-0.01
-0.018
-0.027
-0.037
-0.046
-0.055
-0.063
-0.069
-0.073
-0.075
-0.075
-0.074
-0.074
-0.073
-0.072
-0.072
-0.07
-0.069
-0.068
-0.067
-0.066
-0.065
-0.064
-0.064
-0.063
-0.062
-0.062
-0.06
-0.058
-0.057
-0.056
-0.055
-0.055
-0.055
-0.055
-0.054
-0.054
-0.054
-0.055
-0.054
-0.054
-0.054
-0.053
-0.051
-0.051
-0.05
-0.05
-0.049
-0.048
-0.047
-0.046
-0.045
-0.045
-0.044
-0.044
-0.043
-0.043
-0.042
-0.041
-0.041
-0.041
-0.04
-0.039
-0.038
-0.033
-0.027
-0.02
-0.012
-0.003
0.005
0.012
0.018
0.023
0.027
0.029
0.03
0.029
0.027
0.024
0.019
0.014
0.007
0
-0.009
-0.018
-0.026
-0.032
-0.035
-0.037
-0.039
-0.039
-0.038
-0.039
-0.039
-0.038
-0.037
-0.037
-0.037
-0.036
-0.036
-0.035
-0.035
-0.034
-0.034
-0.033
-0.033
-0.036
-0.039
-0.032
-0.015
0.014
0.059
0.114
0.172
0.23
0.287
0.341
0.388
0.413
0.414
0.39
0.342
0.277
0.208
0.139
0.072
0.008
-0.044
-0.079
-0.097
-0.098
-0.087
-0.074
-0.064
-0.06
-0.059
-0.058
-0.057
-0.056
-0.055
-0.054
-0.053
-0.053
-0.053
-0.053
-0.054
-0.054
-0.054
-0.053
-0.051
-0.046
-0.04
-0.031
-0.022
-0.011
0
0.01
0.018
0.027
0.036
0.044
0.052
0.061
0.071
0.078
0.084
0.089
0.093
0.095
0.096
0.097
0.098
0.097
0.097
0.096
0.094
0.092
0.089
0.086
0.082
0.077
0.071
0.064
0.053
0.042
0.032
0.022
0.012
0.003
-0.005
-0.014
-0.023
-0.032
-0.041
-0.048
-0.055
-0.06
-0.061
-0.061
-0.061
-0.06
-0.058
-0.058
-0.057
-0.056
-0.055
-0.054
-0.054
-0.053
-0.053
-0.052
-0.051
-0.051
-0.051
-0.05
-0.049
-0.048
-0.048
-0.047
-0.045
-0.045
-0.045
-0.045
-0.044
-0.044
-0.043
-0.042
-0.041
-0.04
-0.04
-0.039
-0.039
-0.039
-0.039
-0.039
-0.04
-0.04
-0.039
-0.038
-0.037
-0.036
-0.035
-0.036
-0.036
-0.035
-0.034
-0.034
-0.033
-0.032
-0.032
-0.031
-0.029
-0.025
-0.019
-0.013
-0.006
0.002
0.01
0.017
0.022
0.028
0.032
0.034
0.035
0.034
0.033
0.03
0.025
0.02
0.01
0.002
-0.007
-0.015
-0.022
-0.025
-0.029
-0.032
-0.034
-0.035
-0.035
-0.035
-0.035
-0.035
-0.034
-0.034
-0.034
-0.033
-0.032
-0.031
-0.031
-0.03
-0.029
-0.03
-0.03
-0.034
-0.04
-0.036
-0.021
0.006
0.072
0.127
0.184
0.241
0.298
0.33
0.38
0.408
0.409
0.386
0.338
0.272
0.203
0.137
0.071
0.005
-0.05
-0.087
-0.106
-0.108
-0.097
-0.083
-0.073
-0.067
-0.065
-0.064
-0.063
-0.062
-0.062
-0.062
-0.061
-0.06
-0.06
-0.059
-0.057
-0.058
-0.059
-0.057
-0.056
-0.054
-0.047
-0.039
-0.03
-0.02
-0.01
-0.001
0.007
0.015
0.024
0.033
0.042
0.051
0.06
0.068
0.073
0.078
0.081
0.082
0.084
0.085
0.086
0.086
0.085
0.084
0.082
0.079
0.076
0.074
0.071
0.066
0.059
0.052
0.043
0.032
0.021
0.011
0.001
-0.01
-0.018
-0.026
-0.036
-0.045
-0.053
-0.06
-0.067
-0.072
-0.074
-0.075
-0.075
-0.075
-0.073
-0.073
-0.073
-0.072
-0.071
-0.07
-0.07
-0.069
-0.068
-0.068
-0.068
-0.067
-0.066
-0.065
-0.064
-0.063
-0.062
-0.062
-0.061
-0.06
-0.06
-0.06
-0.06
-0.06
-0.06
-0.06
-0.058
-0.057
-0.056
-0.056
-0.056
-0.056
-0.056
-0.056
-0.055
-0.055
-0.054
-0.053
-0.052
-0.051
-0.05
-0.049
-0.048
-0.048
-0.048
-0.047
-0.047
-0.049
-0.049
-0.048
-0.047
-0.044
-0.038
-0.031
-0.024
-0.015
-0.007
-0
0.006
0.012
0.017
0.021
0.022
0.023
0.021
0.018
0.013
0.007
0.001
-0.007
-0.015
-0.023
-0.031
-0.037
-0.042
-0.045
-0.046
-0.047
-0.047
-0.047
-0.046
-0.045
-0.044
-0.043
-0.043
-0.042
-0.041
-0.041
-0.041
-0.041
-0.041
-0.041
-0.042
-0.045
-0.048
-0.044
-0.029
-0.001
0.064
0.119
0.177
0.236
0.294
0.325
0.374
0.403
0.405
0.384
0.339
0.275
0.207
0.138
0.071
0.006
-0.049
-0.086
-0.106
-0.109
-0.098
-0.085
-0.075
-0.07
-0.068
-0.067
-0.066
-0.065
-0.065
-0.064
-0.062
-0.061
-0.06
-0.06
-0.059
-0.059
-0.059
-0.059
-0.057
-0.053
-0.048
-0.04
-0.03
-0.021
-0.011
-0.002
0.006
0.015
0.024
0.033
0.043
0.053
0.062
0.071
0.077
0.082
0.085
0.087
0.087
0.088
0.089
0.088
0.087
0.086
0.082
0.08
0.077
0.074
0.071
0.069
0.063
0.056
0.047
0.037
0.026
0.016
0.006
-0.004
-0.012
-0.02
-0.028
-0.037
-0.045
-0.054
-0.061
-0.066
-0.068
-0.068
-0.068
-0.066
-0.066
-0.065
-0.065
-0.064
-0.065
-0.064
-0.064
-0.063
-0.061
-0.059
-0.057
-0.055
-0.054
-0.053
-0.053
-0.053
-0.052
-0.053
-0.053
-0.052
-0.052
-0.052
-0.052
-0.052
-0.052
-0.051
-0.05
-0.05
-0.05
-0.049
-0.048
-0.048
-0.047
-0.046
-0.045
-0.044
-0.045
-0.044
-0.043
-0.042
-0.041
-0.038
-0.037
-0.037
-0.037
-0.037
-0.037
-0.037
-0.036
-0.034
-0.033
-0.03
-0.025
-0.019
-0.011
-0.002
0.007
0.015
0.022
0.027
0.031
0.033
0.034
0.033
0.032
0.03
0.025
0.02
0.011
0.003
-0.006
-0.013
-0.021
-0.024
-0.028
-0.03
-0.031
-0.031
-0.031
-0.03
-0.03
-0.029
-0.029
-0.028
-0.028
-0.028
-0.028
-0.029
-0.029
-0.029
-0.029
-0.028
-0.028
-0.031
-0.034
-0.03
-0.016
0.011
0.052
0.106
0.163
0.22
0.277
0.333
0.383
0.413
0.418
0.397
0.352
0.286
0.217
0.15
0.084
0.018
-0.037
-0.075
-0.096
-0.1
-0.089
-0.076
-0.066
-0.059
-0.057
-0.055
-0.055
-0.054
-0.053
-0.053
-0.053
-0.052
-0.052
-0.051
-0.05
-0.049
-0.048
-0.048
-0.046
-0.043
-0.038
-0.031
-0.023
-0.014
-0.004
0.005
0.014
0.024
0.034
0.044
0.053
0.063
0.073
0.081
0.088
0.092
0.095
0.096
0.097
0.097
0.098
0.098
0.097
0.095
0.094
0.091
0.087
0.084
0.08
0.075
0.069
0.063
0.056
0.046
0.037
0.026
0.015
0.004
-0.006
-0.015
-0.024
-0.033
-0.041
-0.048
-0.055
-0.058
-0.06
-0.061
-0.061
-0.06
-0.06
-0.06
-0.06
-0.059
-0.058
-0.057
-0.057
-0.056
-0.056
-0.056
-0.056
-0.055
-0.055
-0.053
-0.054
-0.054
-0.054
-0.055
-0.054
-0.053
-0.052
-0.051
-0.049
-0.049
-0.048
-0.048
-0.048
-0.047
-0.047
-0.047
-0.046
-0.045
-0.044
-0.044
-0.043
-0.043
-0.043
-0.043
-0.044
-0.045
-0.046
-0.046
-0.045
-0.043
-0.043
-0.043
-0.043
-0.042
-0.042
-0.04
-0.039
-0.036
-0.031
-0.025
-0.017
-0.008
0.001
0.009
0.015
0.021
0.026
0.028
0.03
0.03
0.029
0.026
0.021
0.015
0.004
-0.003
-0.012
-0.019
-0.027
-0.028
-0.033
-0.036
-0.037
-0.038
-0.038
-0.038
-0.038
-0.039
-0.039
-0.038
-0.038
-0.037
-0.036
-0.035
-0.034
-0.033
-0.033
-0.033
-0.034
-0.037
-0.042
-0.041
-0.028
-0.003
0.036
0.089
0.147
0.205
0.263
0.319
0.37
0.402
0.408
0.39
0.346
0.282
0.213
0.144
0.076
0.01
-0.046
-0.085
-0.107
-0.112
-0.102
-0.088
-0.078
-0.072
-0.07
-0.07
-0.069
-0.07
-0.07
-0.07
-0.069
-0.068
-0.067
-0.066
-0.066
-0.066
-0.065
-0.065
-0.063
-0.059
-0.054
-0.047
-0.038
-0.029
-0.02
-0.011
-0.002
0.007
0.017
0.027
0.036
0.046
0.056
0.064
0.07
0.075
0.078
0.08
0.082
0.083
0.085
0.086
0.086
0.084
0.083
0.081
0.077
0.074
0.071
0.065
0.059
0.052
0.043
0.033
0.022
0.011
0.002
-0.008
-0.018
-0.026
-0.036
-0.045
-0.053
-0.061
-0.068
-0.073
-0.075
-0.076
-0.076
-0.075
-0.075
-0.074
-0.073
-0.072
-0.069
-0.068
-0.068
-0.067
-0.066
-0.066
-0.066
-0.065
-0.065
-0.066
-0.065
-0.065
-0.066
-0.065
-0.064
-0.063
-0.062
-0.061
-0.059
-0.059
-0.059
-0.058
-0.059
-0.06
-0.06
-0.059
-0.058
-0.056
-0.055
-0.054
-0.052
-0.051
-0.051
-0.051
-0.049
-0.049
-0.048
-0.047
-0.046
-0.048
-0.048
-0.049
-0.049
-0.049
-0.048
-0.048
-0.046
-0.042
-0.037
-0.03
-0.022
-0.013
-0.004
0.004
0.011
0.018
0.023
0.026
0.027
0.026
0.025
0.022
0.017
0.011
0.006
-0.002
-0.01
-0.018
-0.026
-0.032
-0.038
-0.041
-0.041
-0.041
-0.041
-0.041
-0.04
-0.04
-0.04
-0.039
-0.038
-0.037
-0.035
-0.033
-0.033
-0.034
-0.034
-0.035
-0.034
-0.036
-0.039
-0.037
-0.023
0.002
0.042
0.094
0.152
0.209
0.285
0.34
0.392
0.425
0.433
0.392
0.35
0.287
0.218
0.151
0.085
0.019
-0.038
-0.078
-0.101
-0.106
-0.096
-0.083
-0.072
-0.067
-0.065
-0.064
-0.063
-0.062
-0.061
-0.06
-0.06
-0.059
-0.058
-0.057
-0.056
-0.055
-0.055
-0.054
-0.05
-0.046
-0.041
-0.033
-0.024
-0.017
-0.008
0
0.008
0.016
0.025
0.036
0.046
0.057
0.068
0.076
0.083
0.087
0.091
0.093
0.094
0.095
0.096
0.096
0.095
0.094
0.092
0.09
0.088
0.085
0.082
0.077
0.072
0.065
0.056
0.045
0.034
0.023
0.011
-0
-0.009
-0.016
-0.024
-0.032
-0.04
-0.048
-0.056
-0.062
-0.064
-0.065
-0.065
-0.064
-0.062
-0.062
-0.061
-0.061
-0.059
-0.059
-0.059
-0.059
-0.06
-0.059
-0.059
-0.058
-0.058
-0.056
-0.056
-0.056
-0.057
-0.055
-0.054
-0.052
-0.05
-0.049
-0.047
-0.047
-0.047
-0.047
-0.047
-0.047
-0.047
-0.046
-0.045
-0.044
-0.043
-0.042
-0.041
-0.04
-0.04
-0.039
-0.038
-0.038
-0.038
-0.037
-0.036
-0.036
-0.036
-0.035
-0.034
-0.034
-0.033
-0.032
-0.031
-0.028
-0.023
-0.017
-0.009
-0.001
0.008
0.016
0.023
0.029
0.034
0.036
0.036
0.037
0.036
0.034
0.03
0.025
0.019
0.012
0.003
-0.005
-0.014
-0.021
-0.027
-0.029
-0.03
-0.029
-0.029
-0.029
-0.028
-0.029
-0.029
-0.029
-0.029
-0.029
-0.028
-0.027
-0.027
-0.027
-0.027
-0.027
-0.028
-0.03
-0.035
-0.034
-0.023
0.002
0.041
0.093
0.151
0.21
0.286
0.343
0.394
0.428
0.436
0.4
0.358
0.295
0.226
0.158
0.091
0.024
-0.034
-0.075
-0.099
-0.105
-0.096
-0.083
-0.072
-0.066
-0.064
-0.063
-0.062
-0.061
-0.06
-0.059
-0.058
-0.058
-0.058
-0.058
-0.057
-0.057
-0.056
-0.054
-0.052
-0.049
-0.044
-0.037
-0.029
-0.02
-0.01
-0.001
0.008
0.016
0.025
0.035
0.044
0.053
0.063
0.071
0.077
0.081
0.085
0.088
0.09
0.092
0.093
0.093
0.091
0.09
0.088
0.086
0.084
0.082
0.076
0.071
0.065
0.059
0.05
0.041
0.03
0.019
0.008
-0.002
-0.012
-0.021
-0.031
-0.041
-0.048
-0.057
-0.064
-0.069
-0.072
-0.073
-0.073
-0.071
-0.069
-0.068
-0.067
-0.067
-0.066
-0.066
-0.066
-0.065
-0.063
-0.063
-0.062
-0.061
-0.06
-0.06
-0.059
-0.059
-0.058
-0.057
-0.058
-0.058
-0.058
-0.059
-0.059
-0.058
-0.057
-0.056
-0.055
-0.054
-0.053
-0.053
-0.053
-0.053
-0.053
-0.052
-0.051
-0.05
-0.05
-0.05
-0.049
-0.049
-0.05
-0.05
-0.049
-0.05
-0.05
-0.049
-0.048
-0.048
-0.048
-0.047
-0.046
-0.043
-0.037
-0.031
-0.023
-0.015
-0.007
0.002
0.009
0.015
0.02
0.023
0.023
0.023
0.021
0.018
0.013
0.008
0.002
-0.006
-0.014
-0.023
-0.03
-0.036
-0.04
-0.042
-0.045
-0.046
-0.046
-0.047
-0.047
-0.046
-0.046
-0.047
-0.047
-0.046
-0.045
-0.043
-0.042
-0.041
-0.04
-0.04
-0.041
-0.043
-0.048
-0.048
-0.037
-0.013
0.025
0.078
0.136
0.194
0.252
0.308
0.361
0.397
0.408
0.393
0.353
0.291
0.223
0.154
0.086
0.019
-0.041
-0.085
-0.11
-0.116
-0.107
-0.092
-0.081
-0.074
-0.072
-0.071
-0.071
-0.07
-0.07
-0.069
-0.067
-0.066
-0.065
-0.063
-0.062
-0.062
-0.063
-0.064
-0.061
-0.058
-0.053
-0.045
-0.035
-0.028
-0.019
-0.009
-0.001
0.008
0.018
0.027
0.037
0.047
0.057
0.066
0.072
0.077
0.081
0.082
0.083
0.084
0.085
0.085
0.085
0.084
0.083
0.081
0.078
0.075
0.071
0.067
0.061
0.054
0.041
0.03
0.019
0.009
-0.002
-0.006
-0.013
-0.021
-0.029
-0.037
-0.046
-0.055
-0.062
-0.067
-0.07
-0.072
-0.072
-0.071
-0.07
-0.069
-0.068
-0.066
-0.065
-0.065
-0.065
-0.065
-0.065
-0.064
-0.064
-0.062
-0.061
-0.061
-0.061
-0.06
-0.059
-0.059
-0.058
-0.057
-0.056
-0.056
-0.055
-0.054
-0.053
-0.052
-0.052
-0.053
-0.053
-0.053
-0.052
-0.051
-0.05
-0.049
-0.048
-0.048
-0.048
-0.047
-0.046
-0.045
-0.044
-0.043
-0.042
-0.042
-0.042
-0.04
-0.039
-0.04
-0.04
-0.04
-0.04
-0.038
-0.033
-0.026
-0.019
-0.01
-0.001
0.007
0.014
0.02
0.026
0.029
0.03
0.031
0.03
0.027
0.023
0.018
0.011
0.003
-0.005
-0.014
-0.021
-0.027
-0.032
-0.035
-0.036
-0.037
-0.036
-0.036
-0.035
-0.035
-0.035
-0.034
-0.034
-0.034
-0.033
-0.033
-0.033
-0.033
-0.032
-0.032
-0.031
-0.034
-0.038
-0.038
-0.027
-0.003
0.035
0.087
0.144
0.202
0.261
0.318
0.372
0.409
0.396
0.383
0.344
0.284
0.215
0.172
0.103
0.035
-0.025
-0.067
-0.093
-0.1
-0.092
-0.078
-0.068
-0.061
-0.059
-0.058
-0.056
-0.055
-0.054
-0.053
-0.052
-0.051
-0.05
-0.05
-0.049
-0.048
-0.048
-0.048
-0.041
-0.038
-0.034
-0.027
-0.018
-0.015
-0.006
0.004
0.013
0.021
0.031
0.041
0.05
0.06
0.071
0.079
0.085
0.09
0.093
0.095
0.097
0.099
0.1
0.1
0.099
0.098
0.097
0.094
0.091
0.088
0.084
0.08
0.073
0.066
0.058
0.048
0.036
0.026
0.017
0.007
-0.001
-0.009
-0.018
-0.028
-0.037
-0.045
-0.052
-0.056
-0.057
-0.057
-0.057
-0.056
-0.055
-0.056
-0.057
-0.057
-0.057
-0.057
-0.057
-0.056
-0.054
-0.053
-0.052
-0.051
-0.049
-0.048
-0.047
-0.046
-0.045
-0.045
-0.046
-0.046
-0.046
-0.046
-0.046
-0.045
-0.044
-0.043
-0.043
-0.042
-0.041
-0.041
-0.041
-0.041
-0.041
-0.041
-0.04
-0.039
-0.038
-0.037
-0.036
-0.035
-0.035
-0.035
-0.035
-0.035
-0.036
-0.035
-0.034
-0.033
-0.032
-0.032
-0.031
-0.029
-0.025
-0.019
-0.011
-0.003
0.006
0.014
0.02
0.025
0.03
0.033
0.034
0.035
0.034
0.032
0.028
0.022
0.016
0.007
-0.002
-0.011
-0.019
-0.027
-0.032
-0.035
-0.038
-0.039
-0.038
-0.037
-0.037
-0.035
-0.034
-0.034
-0.034
-0.034
-0.033
-0.033
-0.032
-0.031
-0.03
-0.029
-0.029
-0.031
-0.035
-0.036
-0.026
-0.004
0.031
0.081
0.139
0.196
0.253
0.309
0.363
0.401
0.416
0.404
0.367
0.309
0.241
0.171
0.104
0.037
-0.023
-0.069
-0.096
-0.105
-0.099
-0.086
-0.075
-0.069
-0.066
-0.065
-0.064
-0.063
-0.062
-0.061
-0.06
-0.059
-0.059
-0.059
-0.058
-0.057
-0.057
-0.057
-0.056
-0.053
-0.05
-0.043
-0.034
-0.024
-0.015
-0.006
0.002
0.01
0.018
0.028
0.037
0.047
0.057
0.067
0.074
0.079
0.084
0.087
0.088
0.089
0.089
0.089
0.088
0.085
0.083
0.081
0.078
0.075
0.072
0.068
0.062
0.055
0.041
0.031
0.02
0.01
0
-0.004
-0.013
-0.021
-0.03
-0.039
-0.047
-0.055
-0.063
-0.068
-0.071
-0.073
-0.073
-0.073
-0.072
-0.072
-0.072
-0.071
-0.07
-0.069
-0.068
-0.067
-0.066
-0.066
-0.065
-0.065
-0.064
-0.065
-0.065
-0.064
-0.063
-0.064
-0.063
-0.062
-0.061
-0.06
-0.059
-0.059
-0.059
-0.06
-0.059
-0.059
-0.058
-0.057
-0.056
-0.056
-0.056
-0.055
-0.054
-0.053
-0.053
-0.053
-0.052
-0.052
-0.052
-0.051
-0.051
-0.051
-0.051
-0.051
-0.049
-0.048
-0.048
-0.047
-0.044
-0.041
-0.037
-0.03
-0.023
-0.015
-0.006
0.002
0.01
0.017
0.021
0.023
0.024
0.023
0.018
0.016
0.012
0.008
0.003
-0.001
-0.01
-0.018
-0.027
-0.034
-0.039
-0.043
-0.042
-0.043
-0.043
-0.042
-0.041
-0.042
-0.041
-0.04
-0.04
-0.039
-0.038
-0.038
-0.038
-0.038
-0.038
-0.037
-0.037
-0.039
-0.044
-0.046
-0.036
-0.015
0.021
0.071
0.129
0.187
0.244
0.302
0.356
0.394
0.41
0.399
0.363
0.305
0.238
0.17
0.102
0.034
-0.027
-0.073
-0.101
-0.112
-0.106
-0.092
-0.08
-0.072
-0.068
-0.067
-0.067
-0.066
-0.066
-0.066
-0.065
-0.065
-0.065
-0.063
-0.062
-0.061
-0.06
-0.059
-0.057
-0.055
-0.051
-0.044
-0.033
-0.023
-0.014
-0.004
0.005
0.012
0.022
0.033
0.042
0.052
0.062
0.069
0.075
0.081
0.085
0.088
0.09
0.092
0.093
0.093
0.092
0.091
0.09
0.087
0.084
0.082
0.079
0.074
0.068
0.062
0.048
0.038
0.027
0.017
0.007
0.003
-0.006
-0.014
-0.022
-0.03
-0.038
-0.046
-0.052
-0.058
-0.062
-0.064
-0.065
-0.065
-0.064
-0.063
-0.062
-0.061
-0.06
-0.06
-0.06
-0.06
-0.059
-0.058
-0.058
-0.056
-0.055
-0.054
-0.053
-0.052
-0.051
-0.051
-0.051
-0.05
-0.048
-0.048
-0.049
-0.05
-0.05
-0.051
-0.051
-0.05
-0.048
-0.046
-0.045
-0.044
-0.044
-0.044
-0.043
-0.042
-0.041
-0.04
-0.04
-0.039
-0.039
-0.038
-0.037
-0.037
-0.037
-0.037
-0.039
-0.039
-0.039
-0.037
-0.037
-0.033
-0.03
-0.023
-0.016
-0.007
0.002
0.011
0.017
0.023
0.028
0.031
0.032
0.033
0.034
0.032
0.029
0.023
0.017
0.009
0
-0.008
-0.016
-0.022
-0.028
-0.032
-0.035
-0.036
-0.035
-0.034
-0.033
-0.031
-0.03
-0.029
-0.029
-0.028
-0.027
-0.027
-0.027
-0.028
-0.028
-0.027
-0.027
-0.028
-0.032
-0.033
-0.023
-0.002
0.033
0.082
0.141
0.198
0.255
0.311
0.364
0.404
0.42
0.411
0.376
0.318
0.25
0.181
0.113
0.047
-0.013
-0.06
-0.088
-0.098
-0.092
-0.077
-0.065
-0.058
-0.055
-0.054
-0.053
-0.052
-0.052
-0.052
-0.052
-0.052
-0.052
-0.052
-0.051
-0.049
-0.048
-0.047
-0.046
-0.043
-0.039
-0.033
-0.024
-0.015
-0.006
0.003
0.012
0.02
0.029
0.038
0.048
0.057
0.067
0.076
0.082
0.087
0.092
0.095
0.097
0.098
0.099
0.098
0.098
0.097
0.097
0.095
0.092
0.088
0.085
0.08
0.074
0.067
0.059
0.049
0.038
0.027
0.017
0.007
-0.004
-0.013
-0.022
-0.031
-0.039
-0.047
-0.053
-0.059
-0.062
-0.065
-0.066
-0.065
-0.063
-0.062
-0.061
-0.06
-0.058
-0.059
-0.06
-0.06
-0.059
-0.06
-0.06
-0.06
-0.059
-0.058
-0.058
-0.056
-0.054
-0.054
-0.054
-0.053
-0.053
-0.054
-0.054
-0.054
-0.055
-0.053
-0.053
-0.052
-0.051
-0.051
-0.05
-0.049
-0.048
-0.047
-0.046
-0.046
-0.046
-0.046
-0.046
-0.045
-0.044
-0.044
-0.043
-0.042
-0.042
-0.042
-0.04
-0.039
-0.039
-0.039
-0.039
-0.039
-0.036
-0.03
-0.023
-0.014
-0.005
0.004
0.011
0.017
0.022
0.026
0.026
0.026
0.025
0.023
0.019
0.014
0.008
0.001
-0.008
-0.017
-0.025
-0.032
-0.036
-0.04
-0.041
-0.041
-0.042
-0.044
-0.043
-0.043
-0.043
-0.042
-0.043
-0.042
-0.042
-0.041
-0.041
-0.039
-0.039
-0.039
-0.039
-0.041
-0.045
-0.047
-0.039
-0.018
0.016
0.065
0.123
0.181
0.238
0.295
0.349
0.389
0.406
0.397
0.363
0.305
0.238
0.17
0.102
0.034
-0.028
-0.074
-0.103
-0.114
-0.109
-0.095
-0.082
-0.074
-0.069
-0.068
-0.067
-0.066
-0.066
-0.067
-0.067
-0.068
-0.068
-0.067
-0.066
-0.065
-0.064
-0.063
-0.062
-0.06
-0.055
-0.048
-0.039
-0.029
-0.02
-0.01
0
0.009
0.017
0.027
0.039
0.048
0.057
0.066
0.073
0.076
0.079
0.083
0.084
0.084
0.085
0.086
0.086
0.086
0.085
0.083
0.08
0.077
0.073
0.068
0.063
0.055
0.047
0.038
0.026
0.015
-0
-0.01
-0.02
-0.027
-0.035
-0.039
-0.048
-0.056
-0.065
-0.071
-0.075
-0.077
-0.077
-0.076
-0.075
-0.075
-0.075
-0.074
-0.072
-0.071
-0.07
-0.069
-0.068
-0.067
-0.067
-0.066
-0.064
-0.063
-0.062
-0.062
-0.063
-0.063
-0.063
-0.061
-0.06
-0.058
-0.058
-0.057
-0.058
-0.058
-0.057
-0.056
-0.055
-0.055
-0.054
-0.053
-0.054
-0.054
-0.053
-0.053
-0.053
-0.051
-0.051
-0.051
-0.05
-0.05
-0.05
-0.049
-0.049
-0.048
-0.047
-0.047
-0.046
-0.046
-0.045
-0.043
-0.039
-0.033
-0.026
-0.017
-0.009
0
0.008
0.014
0.019
0.023
0.025
0.025
0.025
0.023
0.019
0.015
0.009
0.002
-0.006
-0.015
-0.023
-0.031
-0.037
-0.04
-0.041
-0.04
-0.04
-0.039
-0.038
-0.038
-0.037
-0.036
-0.036
-0.037
-0.037
-0.036
-0.035
-0.035
-0.034
-0.033
-0.033
-0.034
-0.038
-0.039
-0.032
-0.012
0.022
0.069
0.126
0.184
0.242
0.296
0.35
0.392
0.411
0.405
0.374
0.319
0.227
0.159
0.091
0.025
-0.037
-0.059
-0.09
-0.104
-0.1
-0.087
-0.075
-0.067
-0.062
-0.06
-0.059
-0.057
-0.056
-0.056
-0.055
-0.054
-0.055
-0.055
-0.055
-0.055
-0.054
-0.053
-0.051
-0.048
-0.043
-0.038
-0.029
-0.02
-0.011
-0.001
0.008
0.016
0.026
0.035
0.045
0.054
0.064
0.073
0.08
0.086
0.09
0.092
0.093
0.094
0.096
0.097
0.096
0.096
0.094
0.092
0.089
0.085
0.082
0.077
0.072
0.066
0.059
0.05
0.04
0.03
0.017
0.006
-0.005
-0.013
-0.021
-0.028
-0.036
-0.045
-0.052
-0.057
-0.059
-0.06
-0.059
-0.059
-0.058
-0.058
-0.058
-0.058
-0.058
-0.058
-0.058
-0.057
-0.055
-0.053
-0.053
-0.052
-0.052
-0.051
-0.05
-0.049
-0.048
-0.046
-0.047
-0.047
-0.046
-0.046
-0.046
-0.045
-0.046
-0.047
-0.047
-0.047
-0.046
-0.045
-0.044
-0.043
-0.042
-0.041
-0.04
-0.039
-0.039
-0.039
-0.038
-0.038
-0.038
-0.037
-0.037
-0.037
-0.037
-0.036
-0.035
-0.034
-0.034
-0.033
-0.03
-0.029
-0.025
-0.018
-0.01
-0.003
0.006
0.014
0.021
0.027
0.032
0.034
0.036
0.036
0.035
0.033
0.03
0.024
0.018
0.011
0.004
-0.004
-0.011
-0.018
-0.024
-0.028
-0.03
-0.031
-0.032
-0.031
-0.032
-0.033
-0.033
-0.032
-0.031
-0.029
-0.028
-0.027
-0.026
-0.025
-0.024
-0.023
-0.024
-0.026
-0.03
-0.033
-0.026
-0.007
0.026
0.072
0.129
0.186
0.243
0.3
0.356
0.4
0.42
0.414
0.383
0.328
0.26
0.192
0.124
0.058
-0.005
-0.053
-0.083
-0.097
-0.094
-0.081
-0.07
-0.062
-0.058
-0.057
-0.057
-0.056
-0.056
-0.056
-0.056
-0.056
-0.056
-0.055
-0.054
-0.054
-0.053
-0.052
-0.051
-0.049
-0.044
-0.038
-0.03
-0.02
-0.011
-0.002
0.007
0.015
0.024
0.033
0.043
0.053
0.063
0.072
0.079
0.084
0.088
0.09
0.092
0.093
0.094
0.094
0.094
0.092
0.091
0.088
0.084
0.081
0.077
0.073
0.068
0.061
0.053
0.044
0.034
0.023
0.014
0.004
-0.006
-0.014
-0.024
-0.033
-0.042
-0.051
-0.059
-0.064
-0.067
-0.069
-0.069
-0.069
-0.069
-0.068
-0.068
-0.067
-0.066
-0.066
-0.066
-0.066
-0.065
-0.064
-0.063
-0.062
-0.06
-0.06
-0.059
-0.059
-0.057
-0.057
-0.056
-0.055
-0.054
-0.054
-0.054
-0.054
-0.054
-0.054
-0.055
-0.055
-0.055
-0.056
-0.055
-0.054
-0.053
-0.052
-0.051
-0.05
-0.05
-0.049
-0.048
-0.047
-0.047
-0.047
-0.047
-0.047
-0.047
-0.046
-0.045
-0.044
-0.044
-0.044
-0.039
-0.038
-0.036
-0.03
-0.022
-0.018
-0.009
-0.001
0.006
0.012
0.017
0.021
0.024
0.025
0.025
0.024
0.02
0.014
0.008
-0
-0.009
-0.019
-0.026
-0.033
-0.038
-0.041
-0.043
-0.044
-0.044
-0.045
-0.044
-0.044
-0.043
-0.041
-0.04
-0.04
-0.04
-0.04
-0.039
-0.039
-0.039
-0.038
-0.038
-0.04
-0.044
-0.047
-0.04
-0.021
0.011
0.057
0.114
0.171
0.228
0.284
0.339
0.384
0.407
0.403
0.374
0.321
0.255
0.186
0.118
0.051
-0.008
-0.058
-0.091
-0.105
-0.103
-0.095
-0.082
-0.073
-0.069
-0.069
-0.069
-0.068
-0.068
-0.067
-0.065
-0.065
-0.065
-0.065
-0.066
-0.065
-0.065
-0.064
-0.063
-0.058
-0.053
-0.046
-0.038
-0.029
-0.021
-0.013
-0
0.008
0.016
0.027
0.036
0.042
0.053
0.063
0.07
0.076
0.08
0.082
0.083
0.084
0.086
0.087
0.086
0.085
0.083
0.079
0.076
0.073
0.07
0.068
0.063
0.057
0.051
0.042
0.031
0.02
0.01
-0
-0.01
-0.018
-0.027
-0.036
-0.045
-0.054
-0.06
-0.066
-0.07
-0.072
-0.072
-0.073
-0.073
-0.071
-0.07
-0.068
-0.066
-0.065
-0.064
-0.064
-0.063
-0.064
-0.064
-0.063
-0.062
-0.061
-0.061
-0.059
-0.058
-0.057
-0.057
-0.055
-0.054
-0.054
-0.054
-0.053
-0.055
-0.056
-0.057
-0.055
-0.054
-0.052
-0.05
-0.049
-0.049
-0.049
-0.048
-0.047
-0.047
-0.047
-0.046
-0.045
-0.045
-0.044
-0.044
-0.044
-0.044
-0.044
-0.043
-0.042
-0.042
-0.041
-0.04
-0.037
-0.033
-0.028
-0.02
-0.012
-0.004
0.005
0.014
0.02
0.025
0.03
0.032
0.032
0.032
0.03
0.026
0.02
0.014
0.006
-0.002
-0.01
-0.017
-0.025
-0.031
-0.035
-0.037
-0.038
-0.038
-0.038
-0.037
-0.036
-0.035
-0.034
-0.033
-0.034
-0.034
-0.034
-0.033
-0.033
-0.032
-0.031
-0.03
-0.032
-0.036
-0.039
-0.033
-0.015
0.018
0.065
0.121
0.18
0.237
0.293
0.349
0.394
0.416
0.413
0.384
0.331
0.264
0.196
0.13
0.062
0.002
-0.048
-0.081
-0.096
-0.094
-0.085
-0.073
-0.064
-0.059
-0.057
-0.056
-0.055
-0.055
-0.055
-0.055
-0.054
-0.054
-0.053
-0.053
-0.052
-0.051
-0.05
-0.048
-0.045
-0.04
-0.034
-0.025
-0.016
-0.008
0.001
0.01
0.018
0.027
0.037
0.048
0.058
0.068
0.077
0.084
0.09
0.094
0.097
0.099
0.1
0.101
0.102
0.101
0.101
0.099
0.096
0.093
0.091
0.088
0.084
0.079
0.071
0.062
0.052
0.04
0.029
0.019
0.009
-0.001
-0.01
-0.02
-0.03
-0.039
-0.047
-0.054
-0.058
-0.061
-0.062
-0.063
-0.062
-0.062
-0.062
-0.061
-0.06
-0.059
-0.059
-0.058
-0.058
-0.058
-0.057
-0.056
-0.054
-0.053
-0.051
-0.05
-0.05
-0.049
-0.049
-0.05
-0.049
-0.047
-0.046
-0.046
-0.045
-0.045
-0.046
-0.047
-0.047
-0.047
-0.046
-0.046
-0.045
-0.044
-0.044
-0.044
-0.044
-0.043
-0.043
-0.043
-0.043
-0.042
-0.042
-0.041
-0.041
-0.041
-0.042
-0.042
-0.042
-0.042
-0.041
-0.04
-0.038
-0.034
-0.028
-0.02
-0.012
-0.003
0.006
0.014
0.021
0.026
0.03
0.033
0.033
0.033
0.031
0.028
0.022
0.016
0.009
-0
-0.009
-0.017
-0.025
-0.031
-0.035
-0.038
-0.038
-0.039
-0.039
-0.039
-0.038
-0.038
-0.037
-0.037
-0.037
-0.037
-0.036
-0.036
-0.036
-0.036
-0.035
-0.035
-0.035
-0.038
-0.042
-0.037
-0.02
0.01
0.054
0.11
0.168
0.226
0.283
0.338
0.385
0.409
0.408
0.382
0.332
0.266
0.196
0.128
0.06
-0.004
-0.054
-0.089
-0.106
-0.105
-0.092
-0.08
-0.071
-0.066
-0.065
-0.065
-0.064
-0.063
-0.062
-0.061
-0.06
-0.06
-0.06
-0.06
-0.059
-0.059
-0.058
-0.053
-0.052
-0.049
-0.044
-0.037
-0.032
-0.024
-0.015
-0.006
0.002
0.011
0.021
0.032
0.042
0.052
0.061
0.069
0.075
0.079
0.082
0.084
0.085
0.086
0.087
0.086
0.085
0.083
0.081
0.078
0.076
0.073
0.07
0.065
0.058
0.05
0.04
0.029
0.018
0.009
-0.001
-0.011
-0.02
-0.033
-0.042
-0.051
-0.059
-0.067
-0.068
-0.072
-0.073
-0.072
-0.07
-0.069
-0.069
-0.069
-0.07
-0.071
-0.071
-0.07
-0.07
-0.069
-0.069
-0.069
-0.068
-0.067
-0.067
-0.066
-0.065
-0.065
-0.064
-0.063
-0.063
-0.061
-0.061
-0.062
-0.06
-0.059
-0.059
-0.059
-0.057
-0.057
-0.057
-0.056
-0.056
-0.056
-0.056
-0.055
-0.054
-0.053
-0.052
-0.051
-0.05
-0.05
-0.049
-0.048
-0.048
-0.049
-0.049
-0.048
-0.048
-0.049
-0.048
-0.047
-0.045
-0.041
-0.034
-0.024
-0.016
-0.008
0
0.007
0.011
0.016
0.02
0.022
0.023
0.023
0.022
0.019
0.014
0.008
0.001
-0.008
-0.018
-0.026
-0.032
-0.038
-0.042
-0.043
-0.043
-0.043
-0.043
-0.042
-0.041
-0.041
-0.041
-0.04
-0.04
-0.041
-0.041
-0.04
-0.04
-0.04
-0.039
-0.038
-0.039
-0.042
-0.046
-0.041
-0.024
0.006
0.051
0.107
0.164
0.221
0.276
0.331
0.379
0.403
0.402
0.377
0.327
0.261
0.193
0.127
0.06
-0.006
-0.059
-0.094
-0.112
-0.109
-0.096
-0.083
-0.073
-0.067
-0.067
-0.066
-0.065
-0.065
-0.065
-0.064
-0.064
-0.063
-0.062
-0.061
-0.06
-0.059
-0.058
-0.057
-0.056
-0.052
-0.047
-0.039
-0.03
-0.021
-0.012
-0.002
0.006
0.015
0.024
0.04
0.049
0.058
0.068
0.076
0.076
0.081
0.085
0.086
0.088
0.089
0.089
0.089
0.087
0.086
0.084
0.081
0.078
0.076
0.072
0.067
0.061
0.053
0.044
0.033
0.023
0.013
0.003
-0.007
-0.015
-0.023
-0.031
-0.039
-0.047
-0.053
-0.058
-0.062
-0.065
-0.065
-0.065
-0.065
-0.064
-0.064
-0.064
-0.063
-0.063
-0.063
-0.062
-0.061
-0.06
-0.059
-0.058
-0.057
-0.056
-0.056
-0.056
-0.056
-0.056
-0.056
-0.056
-0.055
-0.055
-0.054
-0.053
-0.052
-0.052
-0.051
-0.049
-0.048
-0.047
-0.046
-0.045
-0.046
-0.045
-0.044
-0.044
-0.043
-0.043
-0.042
-0.041
-0.04
-0.039
-0.038
-0.039
-0.039
-0.038
-0.038
-0.037
-0.036
-0.037
-0.037
-0.035
-0.032
-0.026
-0.015
-0.006
0.002
0.012
0.021
0.024
0.03
0.034
0.035
0.035
0.034
0.032
0.029
0.024
0.019
0.012
0.004
-0.005
-0.013
-0.02
-0.025
-0.029
-0.031
-0.032
-0.033
-0.034
-0.033
-0.033
-0.032
-0.031
-0.03
-0.029
-0.029
-0.029
-0.028
-0.028
-0.028
-0.027
-0.027
-0.028
-0.031
-0.035
-0.03
-0.014
0.016
0.06
0.116
0.175
0.233
0.289
0.343
0.39
0.415
0.416
0.392
0.344
0.279
0.21
0.141
0.073
0.008
-0.044
-0.079
-0.097
-0.097
-0.085
-0.073
-0.063
-0.058
-0.055
-0.055
-0.055
-0.054
-0.054
-0.054
-0.054
-0.053
-0.052
-0.051
-0.05
-0.05
-0.051
-0.05
-0.047
-0.044
-0.037
-0.029
-0.019
-0.009
0.001
0.009
0.017
0.026
0.035
0.044
0.053
0.062
0.07
0.078
0.084
0.089
0.094
0.096
0.098
0.099
0.1
0.1
0.099
0.099
0.097
0.094
0.092
0.089
0.085
0.078
0.071
0.063
0.054
0.042
0.032
0.023
0.013
0.003
-0.005
-0.013
-0.021
-0.03
-0.038
-0.046
-0.052
-0.057
-0.06
-0.06
-0.06
-0.061
-0.061
-0.062
-0.061
-0.061
-0.06
-0.06
-0.059
-0.058
-0.056
-0.056
-0.055
-0.054
-0.055
-0.055
-0.055
-0.055
-0.056
-0.056
-0.055
-0.054
-0.053
-0.052
-0.051
-0.05
-0.049
-0.049
-0.048
-0.048
-0.047
-0.047
-0.047
-0.047
-0.047
-0.047
-0.047
-0.047
-0.047
-0.046
-0.046
-0.045
-0.045
-0.045
-0.045
-0.045
-0.044
-0.043
-0.043
-0.042
-0.042
-0.042
-0.041
-0.038
-0.033
-0.026
-0.018
-0.01
-0.002
0.007
0.014
0.019
0.024
0.027
0.028
0.027
0.026
0.022
0.016
0.01
0.002
-0.006
-0.015
-0.023
-0.03
-0.035
-0.039
-0.041
-0.042
-0.042
-0.042
-0.042
-0.042
-0.043
-0.044
-0.044
-0.044
-0.044
-0.042
-0.039
-0.038
-0.037
-0.036
-0.036
-0.039
-0.044
-0.049
-0.046
-0.031
-0.003
0.041
0.097
0.155
0.212
0.268
0.323
0.373
0.402
0.405
0.383
0.336
0.271
0.203
0.135
0.067
0
-0.055
-0.093
-0.112
-0.113
-0.102
-0.089
-0.08
-0.073
-0.072
-0.072
-0.07
-0.068
-0.068
-0.066
-0.065
-0.064
-0.065
-0.064
-0.064
-0.064
-0.063
-0.061
-0.059
-0.055
-0.049
-0.041
-0.031
-0.022
-0.013
-0.004
0.004
0.012
0.022
0.032
0.042
0.051
0.06
0.067
0.071
0.075
0.078
0.08
0.082
0.083
0.084
0.083
0.081
0.08
0.078
0.076
0.074
0.071
0.068
0.063
0.056
0.043
0.034
0.023
0.013
0.002
-0.003
-0.013
-0.021
-0.029
-0.037
-0.047
-0.055
-0.065
-0.071
-0.076
-0.077
-0.076
-0.074
-0.074
-0.072
-0.072
-0.071
-0.07
-0.068
-0.068
-0.068
-0.067
-0.066
-0.066
-0.065
-0.064
-0.064
-0.064
-0.064
-0.063
-0.063
-0.061
-0.061
-0.061
-0.06
-0.061
-0.061
-0.06
-0.059
-0.059
-0.058
-0.057
-0.056
-0.055
-0.053
-0.05
-0.05
-0.05
-0.05
-0.051
-0.052
-0.052
-0.05
-0.05
-0.05
-0.049
-0.049
-0.05
-0.05
-0.05
-0.049
-0.049
-0.049
-0.047
-0.045
-0.042
-0.037
-0.03
-0.021
-0.011
-0.001
0.008
0.016
0.022
0.027
0.03
0.031
0.03
0.029
0.026
0.02
0.014
0.007
-0.001
-0.01
-0.018
-0.025
-0.031
-0.035
-0.038
-0.039
-0.041
-0.041
-0.041
-0.041
-0.04
-0.039
-0.038
-0.038
-0.038
-0.038
-0.039
-0.04
-0.04
-0.04
-0.039
-0.038
-0.041
-0.045
-0.042
-0.027
0.001
0.043
0.098
0.156
0.214
0.272
0.327
0.376
0.405
0.409
0.388
0.343
0.28
0.211
0.142
0.073
0.008
-0.047
-0.084
-0.103
-0.105
-0.094
-0.08
-0.07
-0.064
-0.062
-0.062
-0.062
-0.061
-0.06
-0.058
-0.057
-0.057
-0.057
-0.057
-0.057
-0.057
-0.057
-0.055
-0.052
-0.048
-0.043
-0.035
-0.026
-0.018
-0.009
0.001
0.009
0.018
0.028
0.039
0.049
0.06
0.069
0.079
0.085
0.09
0.093
0.096
0.095
0.096
0.097
0.096
0.095
0.094
0.092
0.09
0.087
0.084
0.08
0.074
0.067
0.058
0.049
0.038
0.028
0.018
0.008
-0.001
-0.009
-0.016
-0.023
-0.031
-0.039
-0.045
-0.051
-0.056
-0.059
-0.058
-0.057
-0.056
-0.054
-0.052
-0.052
-0.053
-0.053
-0.054
-0.054
-0.053
-0.052
-0.052
-0.051
-0.049
-0.048
-0.047
-0.046
-0.045
-0.045
-0.046
-0.046
-0.047
-0.046
-0.046
-0.045
-0.043
-0.042
-0.042
-0.042
-0.039
-0.039
-0.038
-0.037
-0.038
-0.04
-0.041
-0.041
-0.041
-0.039
-0.038
-0.036
-0.036
-0.036
-0.036
-0.035
-0.035
-0.035
-0.035
-0.035
-0.035
-0.034
-0.034
-0.03
-0.028
-0.023
-0.016
-0.007
0.001
0.01
0.021
0.028
0.034
0.038
0.04
0.038
0.037
0.034
0.031
0.027
0.021
0.014
0.006
-0.003
-0.011
-0.017
-0.022
-0.026
-0.029
-0.031
-0.032
-0.033
-0.032
-0.031
-0.031
-0.03
-0.028
-0.028
-0.028
-0.028
-0.028
-0.029
-0.029
-0.028
-0.028
-0.028
-0.031
-0.036
-0.031
-0.015
0.013
0.057
0.113
0.171
0.227
0.284
0.339
0.389
0.415
0.416
0.393
0.344
0.278
0.211
0.144
0.078
0.013
-0.041
-0.079
-0.098
-0.099
-0.088
-0.075
-0.065
-0.061
-0.059
-0.059
-0.058
-0.058
-0.057
-0.057
-0.057
-0.057
-0.056
-0.055
-0.054
-0.054
-0.053
-0.052
-0.05
-0.046
-0.041
-0.033
-0.023
-0.014
-0.005
0.004
0.011
0.019
0.028
0.037
0.046
0.056
0.065
0.073
0.08
0.085
0.089
0.092
0.094
0.095
0.096
0.096
0.094
0.093
0.091
0.087
0.083
0.08
0.076
0.07
0.064
0.056
0.046
0.035
0.024
0.013
0.003
-0.006
-0.015
-0.023
-0.031
-0.041
-0.049
-0.057
-0.063
-0.067
-0.07
-0.071
-0.07
-0.069
-0.068
-0.066
-0.065
-0.065
-0.065
-0.064
-0.064
-0.064
-0.063
-0.063
-0.062
-0.061
-0.061
-0.061
-0.06
-0.06
-0.059
-0.058
-0.058
-0.058
-0.058
-0.057
-0.057
-0.056
-0.055
-0.054
-0.053
-0.053
-0.052
-0.052
-0.051
-0.05
-0.048
-0.049
-0.049
-0.049
-0.05
-0.05
-0.049
-0.049
-0.049
-0.048
-0.048
-0.048
-0.047
-0.047
-0.047
-0.046
-0.045
-0.044
-0.043
-0.04
-0.036
-0.031
-0.024
-0.016
-0.007
0.001
0.008
0.014
0.019
0.021
0.023
0.023
0.022
0.019
0.015
0.009
0.002
-0.006
-0.015
-0.023
-0.03
-0.036
-0.04
-0.042
-0.043
-0.043
-0.044
-0.044
-0.043
-0.043
-0.042
-0.041
-0.04
-0.041
-0.041
-0.041
-0.041
-0.041
-0.041
-0.042
-0.042
-0.044
-0.049
-0.046
-0.031
-0.006
0.033
0.086
0.143
0.2
0.257
0.313
0.365
0.397
0.404
0.386
0.343
0.279
0.21
0.141
0.073
0.007
-0.048
-0.087
-0.109
-0.113
-0.104
-0.091
-0.081
-0.073
-0.071
-0.071
-0.07
-0.068
-0.069
-0.069
-0.068
-0.068
-0.067
-0.066
-0.065
-0.065
-0.065
-0.064
-0.062
-0.058
-0.052
-0.043
-0.034
-0.024
-0.016
-0.007
0.001
0.009
0.018
0.029
0.039
0.048
0.057
0.065
0.071
0.076
0.08
0.083
0.085
0.086
0.088
0.089
0.088
0.086
0.084
0.081
0.078
0.075
0.071
0.066
0.06
0.052
0.043
0.033
0.023
0.014
0.004
-0.006
-0.015
-0.025
-0.034
-0.043
-0.051
-0.059
-0.066
-0.071
-0.073
-0.073
-0.073
-0.073
-0.071
-0.07
-0.07
-0.069
-0.067
-0.066
-0.066
-0.066
-0.065
-0.065
-0.064
-0.063
-0.061
-0.06
-0.06
-0.059
-0.058
-0.058
-0.058
-0.058
-0.057
-0.057
-0.057
-0.055
-0.055
-0.056
-0.054
-0.053
-0.053
-0.053
-0.052
-0.051
-0.05
-0.049
-0.048
-0.047
-0.047
-0.047
-0.047
-0.047
-0.047
-0.046
-0.044
-0.043
-0.042
-0.04
-0.039
-0.039
-0.038
-0.038
-0.038
-0.035
-0.031
-0.024
-0.014
-0.005
0.004
0.012
0.019
0.024
0.027
0.027
0.027
0.026
0.025
0.023
0.022
0.017
0.011
0.003
-0.006
-0.013
-0.02
-0.026
-0.031
-0.033
-0.035
-0.036
-0.036
-0.036
-0.035
-0.034
-0.033
-0.032
-0.031
-0.031
-0.031
-0.031
-0.032
-0.032
-0.031
-0.035
-0.034
-0.036
-0.041
-0.04
-0.023
0.002
0.041
0.095
0.154
0.212
0.269
0.325
0.377
0.41
0.418
0.4
0.358
0.295
0.226
0.157
0.09
0.024
-0.033
-0.074
-0.096
-0.101
-0.09
-0.077
-0.066
-0.06
-0.058
-0.058
-0.058
-0.056
-0.055
-0.054
-0.054
-0.053
-0.052
-0.051
-0.05
-0.049
-0.05
-0.049
-0.048
-0.045
-0.039
-0.031
-0.022
-0.012
-0.004
0.005
0.014
0.022
0.032
0.042
0.051
0.06
0.069
0.077
0.083
0.088
0.092
0.095
0.096
0.098
0.099
0.1
0.1
0.099
0.097
0.094
0.091
0.087
0.083
0.078
0.072
0.065
0.056
0.045
0.035
0.025
0.015
0.005
-0.004
-0.012
-0.021
-0.03
-0.038
-0.045
-0.051
-0.055
-0.057
-0.059
-0.059
-0.058
-0.057
-0.058
-0.056
-0.056
-0.056
-0.055
-0.053
-0.053
-0.052
-0.052
-0.053
-0.053
-0.053
-0.052
-0.052
-0.051
-0.05
-0.05
-0.05
-0.048
-0.047
-0.047
-0.046
-0.045
-0.045
-0.045
-0.044
-0.043
-0.042
-0.042
-0.041
-0.04
-0.039
-0.039
-0.039
-0.038
-0.039
-0.039
-0.038
-0.038
-0.038
-0.038
-0.038
-0.038
-0.038
-0.037
-0.037
-0.037
-0.036
-0.035
-0.033
-0.03
-0.025
-0.018
-0.011
-0.003
0.005
0.012
0.019
0.025
0.029
0.032
0.034
0.034
0.033
0.031
0.026
0.02
0.013
0.005
-0.003
-0.01
-0.017
-0.023
-0.028
-0.031
-0.033
-0.034
-0.033
-0.032
-0.032
-0.031
-0.031
-0.031
-0.031
-0.031
-0.031
-0.031
-0.031
-0.032
-0.032
-0.031
-0.031
-0.034
-0.039
-0.036
-0.023
0.002
0.041
0.094
0.15
0.206
0.263
0.32
0.372
0.407
0.416
0.4
0.358
0.296
0.227
0.158
0.09
0.023
-0.035
-0.076
-0.099
-0.105
-0.097
-0.084
-0.074
-0.067
-0.065
-0.065
-0.064
-0.063
-0.063
-0.062
-0.061
-0.061
-0.06
-0.06
-0.06
-0.059
-0.058
-0.058
-0.056
-0.051
-0.046
-0.038
-0.029
-0.019
-0.01
-0.001
0.008
0.016
0.025
0.034
0.043
0.052
0.061
0.069
0.075
0.079
0.083
0.087
0.088
0.09
0.091
0.091
0.089
0.087
0.085
0.083
0.08
0.077
0.074
0.069
0.063
0.056
0.047
0.036
0.025
0.015
0.005
-0.005
-0.014
-0.023
-0.032
-0.042
-0.051
-0.059
-0.065
-0.07
-0.072
-0.072
-0.072
-0.072
-0.071
-0.07
-0.07
-0.07
-0.069
-0.069
-0.069
-0.069
-0.068
-0.068
-0.067
-0.066
-0.065
-0.064
-0.064
-0.063
-0.062
-0.062
-0.061
-0.06
-0.059
-0.059
-0.058
-0.058
-0.058
-0.058
-0.059
-0.058
-0.058
-0.057
-0.056
-0.057
-0.056
-0.056
-0.055
-0.054
-0.051
-0.051
-0.05
-0.05
-0.05
-0.049
-0.049
-0.049
-0.049
-0.048
-0.047
-0.047
-0.045
-0.043
-0.043
-0.04
-0.036
-0.031
-0.024
-0.014
-0.005
0.004
0.011
0.017
0.021
0.02
0.02
0.019
0.018
0.016
0.015
0.01
0.004
-0.004
-0.013
-0.022
-0.03
-0.036
-0.041
-0.044
-0.044
-0.044
-0.043
-0.043
-0.043
-0.044
-0.044
-0.042
-0.042
-0.041
-0.04
-0.04
-0.041
-0.041
-0.04
-0.04
-0.04
-0.042
-0.047
-0.047
-0.035
-0.011
0.026
0.079
0.137
0.194
0.251
0.307
0.36
0.395
0.406
0.391
0.352
0.291
0.222
0.153
0.086
0.019
-0.04
-0.082
-0.106
-0.113
-0.104
-0.09
-0.08
-0.073
-0.071
-0.07
-0.068
-0.067
-0.067
-0.066
-0.065
-0.064
-0.063
-0.062
-0.061
-0.06
-0.059
-0.058
-0.057
-0.054
-0.05
-0.043
-0.034
-0.024
-0.015
-0.005
0.004
0.012
0.022
0.032
0.04
0.05
0.059
0.067
0.074
0.08
0.084
0.086
0.088
0.089
0.09
0.091
0.09
0.089
0.087
0.085
0.082
0.079
0.076
0.071
0.065
0.058
0.049
0.038
0.027
0.017
0.008
-0.003
-0.011
-0.019
-0.027
-0.036
-0.045
-0.053
-0.061
-0.066
-0.068
-0.069
-0.068
-0.068
-0.068
-0.066
-0.066
-0.064
-0.063
-0.061
-0.062
-0.061
-0.061
-0.061
-0.061
-0.06
-0.059
-0.058
-0.058
-0.057
-0.057
-0.057
-0.057
-0.055
-0.053
-0.052
-0.05
-0.048
-0.047
-0.047
-0.046
-0.045
-0.045
-0.044
-0.043
-0.041
-0.04
-0.04
-0.039
-0.038
-0.04
-0.04
-0.04
-0.041
-0.04
-0.04
-0.04
-0.039
-0.039
-0.039
-0.039
-0.039
-0.038
-0.037
-0.036
-0.034
-0.029
-0.022
-0.014
-0.005
0.004
0.012
0.019
0.025
0.029
0.033
0.035
0.036
0.035
0.034
0.03
0.024
0.018
0.012
0.003
-0.007
-0.015
-0.022
-0.028
-0.031
-0.031
-0.032
-0.031
-0.031
-0.03
-0.03
-0.03
-0.029
-0.029
-0.028
-0.028
-0.027
-0.026
-0.027
-0.027
-0.026
-0.027
-0.029
-0.033
-0.011
-0.001
0.022
0.059
0.111
0.144
0.202
0.26
0.317
0.369
0.406
0.418
0.404
0.366
0.306
0.238
0.17
0.101
0.034
-0.026
-0.068
-0.093
-0.101
-0.092
-0.078
-0.067
-0.059
-0.056
-0.056
-0.055
-0.054
-0.053
-0.053
-0.052
-0.051
-0.051
-0.051
-0.049
-0.048
-0.048
-0.048
-0.046
-0.044
-0.04
-0.034
-0.024
-0.015
-0.006
0.003
0.011
0.018
0.027
0.037
0.047
0.056
0.066
0.075
0.082
0.087
0.092
0.095
0.097
0.098
0.099
0.099
0.097
0.096
0.093
0.091
0.089
0.086
0.082
0.078
0.071
0.063
0.055
0.045
0.034
0.024
0.014
0.005
-0.004
-0.012
-0.02
-0.029
-0.038
-0.046
-0.054
-0.06
-0.064
-0.066
-0.067
-0.066
-0.066
-0.067
-0.066
-0.065
-0.064
-0.063
-0.061
-0.06
-0.059
-0.058
-0.057
-0.056
-0.056
-0.056
-0.056
-0.055
-0.055
-0.054
-0.054
-0.053
-0.053
-0.052
-0.051
-0.05
-0.051
-0.051
-0.052
-0.052
-0.051
-0.05
-0.049
-0.047
-0.046
-0.046
-0.046
-0.045
-0.045
-0.045
-0.045
-0.044
-0.044
-0.043
-0.043
-0.042
-0.041
-0.041
-0.04
-0.04
-0.04
-0.041
-0.041
-0.039
-0.035
-0.029
-0.021
-0.013
-0.005
0.004
0.012
0.017
0.023
0.027
0.028
0.028
0.027
0.022
0.018
0.012
0.006
-0.002
-0.007
-0.016
-0.024
-0.031
-0.036
-0.041
-0.043
-0.043
-0.043
-0.042
-0.041
-0.04
-0.039
-0.039
-0.039
-0.038
-0.037
-0.035
-0.035
-0.035
-0.036
-0.037
-0.038
-0.041
-0.046
-0.023
-0.011
0.011
0.047
0.098
0.132
0.189
0.246
0.303
0.357
0.396
0.409
0.398
0.36
0.3
0.23
0.161
0.093
0.027
-0.034
-0.078
-0.104
-0.113
-0.106
-0.093
-0.082
-0.075
-0.073
-0.072
-0.072
-0.07
-0.07
-0.07
-0.069
-0.069
-0.068
-0.068
-0.066
-0.065
-0.065
-0.064
-0.063
-0.06
-0.055
-0.047
-0.038
-0.029
-0.02
-0.011
-0.003
0.005
0.014
0.024
0.033
0.043
0.054
0.062
0.069
0.074
0.078
0.08
0.081
0.082
0.082
0.083
0.083
0.082
0.08
0.078
0.076
0.072
0.069
0.064
0.058
0.051
0.042
0.032
0.021
0.012
0.003
-0.006
-0.014
-0.022
-0.03
-0.039
-0.048
-0.058
-0.065
-0.071
-0.075
-0.076
-0.076
-0.075
-0.073
-0.071
-0.071
-0.07
-0.07
-0.07
-0.07
-0.07
-0.069
-0.068
-0.067
-0.065
-0.063
-0.061
-0.06
-0.059
-0.059
-0.06
-0.06
-0.06
-0.061
-0.062
-0.062
-0.062
-0.062
-0.061
-0.06
-0.059
-0.058
-0.057
-0.056
-0.055
-0.054
-0.054
-0.052
-0.051
-0.05
-0.049
-0.048
-0.047
-0.048
-0.047
-0.046
-0.046
-0.045
-0.045
-0.044
-0.045
-0.046
-0.046
-0.045
-0.043
-0.039
-0.033
-0.025
-0.017
-0.009
-0
0.007
0.013
0.018
0.022
0.023
0.023
0.022
0.017
0.013
0.008
0.002
-0.005
-0.009
-0.018
-0.025
-0.031
-0.036
-0.039
-0.04
-0.04
-0.041
-0.04
-0.039
-0.039
-0.038
-0.037
-0.036
-0.036
-0.036
-0.037
-0.037
-0.037
-0.036
-0.034
-0.033
-0.035
-0.04
-0.041
-0.032
-0.011
0.025
0.076
0.134
0.191
0.249
0.306
0.36
0.398
0.413
0.403
0.366
0.308
0.239
0.171
0.103
0.035
-0.026
-0.07
-0.097
-0.103
-0.096
-0.082
-0.07
-0.062
-0.063
-0.063
-0.062
-0.061
-0.06
-0.058
-0.057
-0.057
-0.056
-0.056
-0.055
-0.053
-0.051
-0.051
-0.05
-0.048
-0.044
-0.038
-0.03
-0.021
-0.011
-0.001
0.007
0.015
0.025
0.035
0.045
0.055
0.064
0.072
0.078
0.083
0.088
0.091
0.093
0.094
0.095
0.093
0.093
0.092
0.09
0.088
0.087
0.084
0.081
0.077
0.072
0.066
0.057
0.048
0.037
0.027
0.017
0.007
-0.002
-0.01
-0.019
-0.029
-0.038
-0.047
-0.055
-0.06
-0.063
-0.064
-0.064
-0.063
-0.063
-0.062
-0.061
-0.061
-0.06
-0.059
-0.059
-0.057
-0.056
-0.055
-0.055
-0.055
-0.055
-0.055
-0.055
-0.054
-0.053
-0.052
-0.051
-0.05
-0.049
-0.047
-0.045
-0.043
-0.041
-0.04
-0.04
-0.039
-0.039
-0.04
-0.04
-0.04
-0.04
-0.04
-0.038
-0.037
-0.037
-0.036
-0.035
-0.035
-0.036
-0.035
-0.035
-0.036
-0.036
-0.035
-0.035
-0.034
-0.035
-0.034
-0.034
-0.032
-0.028
-0.021
-0.014
-0.005
0.005
0.013
0.02
0.025
0.029
0.031
0.033
0.033
0.032
0.029
0.026
0.021
0.016
0.009
0.003
-0.005
-0.013
-0.02
-0.025
-0.028
-0.03
-0.03
-0.031
-0.031
-0.031
-0.031
-0.03
-0.029
-0.029
-0.029
-0.029
-0.031
-0.031
-0.031
-0.031
-0.031
-0.031
-0.033
-0.037
-0.037
-0.027
-0.004
0.031
0.106
0.164
0.222
0.279
0.336
0.363
0.403
0.418
0.407
0.373
0.316
0.246
0.177
0.11
0.043
-0.018
-0.064
-0.093
-0.103
-0.098
-0.084
-0.072
-0.064
-0.06
-0.06
-0.06
-0.06
-0.06
-0.06
-0.06
-0.057
-0.056
-0.055
-0.053
-0.052
-0.054
-0.053
-0.052
-0.05
-0.046
-0.039
-0.031
-0.022
-0.013
-0.004
0.006
0.014
0.023
0.033
0.043
0.052
0.062
0.071
0.079
0.084
0.088
0.091
0.093
0.094
0.094
0.096
0.095
0.093
0.091
0.09
0.087
0.084
0.081
0.078
0.073
0.065
0.055
0.044
0.032
0.021
0.012
0.002
-0.008
-0.016
-0.024
-0.034
-0.044
-0.052
-0.06
-0.065
-0.068
-0.07
-0.07
-0.071
-0.07
-0.069
-0.068
-0.068
-0.067
-0.068
-0.068
-0.067
-0.066
-0.065
-0.063
-0.062
-0.062
-0.062
-0.061
-0.06
-0.058
-0.057
-0.057
-0.056
-0.056
-0.055
-0.055
-0.055
-0.055
-0.054
-0.054
-0.053
-0.052
-0.052
-0.052
-0.051
-0.051
-0.051
-0.05
-0.052
-0.051
-0.052
-0.052
-0.053
-0.052
-0.052
-0.052
-0.051
-0.051
-0.05
-0.049
-0.049
-0.049
-0.047
-0.046
-0.043
-0.039
-0.032
-0.025
-0.018
-0.009
-0.001
0.006
0.012
0.017
0.021
0.024
0.024
0.024
0.022
0.019
0.014
0.008
0.001
-0.007
-0.015
-0.023
-0.03
-0.036
-0.04
-0.042
-0.044
-0.045
-0.045
-0.046
-0.045
-0.045
-0.044
-0.044
-0.044
-0.044
-0.043
-0.042
-0.042
-0.041
-0.04
-0.041
-0.043
-0.048
-0.05
-0.041
-0.02
0.015
0.085
0.142
0.199
0.256
0.314
0.346
0.387
0.404
0.396
0.363
0.308
0.24
0.173
0.104
0.036
-0.027
-0.074
-0.103
-0.114
-0.11
-0.097
-0.085
-0.077
-0.073
-0.072
-0.071
-0.071
-0.071
-0.07
-0.069
-0.068
-0.067
-0.067
-0.067
-0.066
-0.065
-0.065
-0.064
-0.061
-0.056
-0.05
-0.042
-0.032
-0.023
-0.014
-0.005
0.003
0.012
0.023
0.033
0.042
0.052
0.062
0.068
0.073
0.078
0.082
0.083
0.084
0.085
0.085
0.084
0.083
0.082
0.08
0.078
0.075
0.072
0.068
0.063
0.056
0.048
0.038
0.027
0.016
0.005
-0.005
-0.014
-0.021
-0.03
-0.039
-0.047
-0.055
-0.063
-0.07
-0.073
-0.074
-0.074
-0.072
-0.07
-0.068
-0.067
-0.067
-0.067
-0.066
-0.065
-0.065
-0.064
-0.063
-0.063
-0.063
-0.062
-0.062
-0.062
-0.062
-0.062
-0.061
-0.061
-0.06
-0.059
-0.058
-0.058
-0.057
-0.056
-0.056
-0.055
-0.054
-0.053
-0.053
-0.052
-0.052
-0.051
-0.051
-0.05
-0.048
-0.047
-0.046
-0.046
-0.044
-0.043
-0.043
-0.042
-0.041
-0.041
-0.04
-0.04
-0.038
-0.038
-0.037
-0.036
-0.033
-0.029
-0.023
-0.016
-0.008
0.001
0.009
0.017
0.023
0.027
0.03
0.031
0.03
0.029
0.028
0.024
0.019
0.014
0.004
-0.005
-0.014
-0.022
-0.029
-0.031
-0.034
-0.035
-0.037
-0.036
-0.036
-0.036
-0.035
-0.035
-0.034
-0.034
-0.034
-0.034
-0.033
-0.032
-0.032
-0.032
-0.032
-0.032
-0.032
-0.037
-0.039
-0.031
-0.011
0.022
0.07
0.127
0.186
0.244
0.301
0.355
0.397
0.415
0.408
0.376
0.321
0.253
0.185
0.117
0.05
-0.012
-0.06
-0.089
-0.101
-0.097
-0.083
-0.071
-0.063
-0.06
-0.059
-0.058
-0.055
-0.054
-0.052
-0.051
-0.05
-0.049
-0.049
-0.049
-0.051
-0.051
-0.052
-0.051
-0.048
-0.041
-0.035
-0.025
-0.017
-0.008
0.002
0.01
0.019
0.028
0.038
0.047
0.057
0.066
0.076
0.083
0.088
0.092
0.096
0.097
0.098
0.1
0.102
0.101
0.099
0.096
0.091
0.087
0.083
0.081
0.077
0.074
0.068
0.06
0.051
0.04
0.03
0.02
0.01
0.002
-0.006
-0.015
-0.023
-0.032
-0.04
-0.048
-0.054
-0.058
-0.058
-0.058
-0.058
-0.056
-0.055
-0.055
-0.054
-0.053
-0.052
-0.051
-0.05
-0.05
-0.049
-0.05
-0.05
-0.049
-0.048
-0.048
-0.047
-0.047
-0.047
-0.046
-0.046
-0.045
-0.045
-0.045
-0.044
-0.044
-0.044
-0.043
-0.043
-0.042
-0.041
-0.041
-0.039
-0.038
-0.038
-0.038
-0.038
-0.039
-0.039
-0.04
-0.04
-0.04
-0.039
-0.038
-0.037
-0.035
-0.035
-0.035
-0.035
-0.037
-0.038
-0.039
-0.037
-0.033
-0.026
-0.018
-0.008
0.001
0.009
0.016
0.022
0.026
0.03
0.031
0.032
0.032
0.03
0.027
0.022
0.016
0.005
-0.004
-0.012
-0.02
-0.027
-0.028
-0.032
-0.035
-0.036
-0.037
-0.038
-0.038
-0.038
-0.039
-0.039
-0.039
-0.038
-0.038
-0.037
-0.036
-0.036
-0.035
-0.035
-0.035
-0.036
-0.04
-0.043
-0.035
-0.015
0.018
0.067
0.124
0.18
0.236
0.292
0.347
0.39
0.41
0.405
0.375
0.32
0.251
0.184
0.117
0.049
-0.015
-0.062
-0.093
-0.107
-0.104
-0.091
-0.08
-0.071
-0.067
-0.066
-0.065
-0.065
-0.064
-0.064
-0.064
-0.063
-0.063
-0.063
-0.062
-0.06
-0.059
-0.059
-0.057
-0.054
-0.051
-0.046
-0.038
-0.029
-0.021
-0.011
-0.002
0.006
0.015
0.025
0.035
0.045
0.055
0.063
0.071
0.077
0.081
0.084
0.086
0.086
0.086
0.086
0.086
0.084
0.083
0.08
0.078
0.075
0.071
0.068
0.064
0.057
0.05
0.041
0.03
0.019
0.009
-0.001
-0.01
-0.018
-0.025
-0.034
-0.043
-0.052
-0.061
-0.068
-0.073
-0.075
-0.076
-0.076
-0.076
-0.076
-0.075
-0.074
-0.073
-0.071
-0.07
-0.069
-0.069
-0.067
-0.067
-0.067
-0.065
-0.066
-0.067
-0.067
-0.066
-0.067
-0.065
-0.063
-0.062
-0.062
-0.061
-0.06
-0.06
-0.06
-0.06
-0.059
-0.059
-0.057
-0.056
-0.055
-0.055
-0.054
-0.054
-0.053
-0.054
-0.054
-0.054
-0.053
-0.053
-0.053
-0.052
-0.051
-0.051
-0.051
-0.051
-0.051
-0.051
-0.05
-0.049
-0.046
-0.042
-0.036
-0.028
-0.019
-0.011
-0.003
0.004
0.01
0.015
0.019
0.021
0.022
0.022
0.021
0.017
0.011
0.005
-0.003
-0.012
-0.022
-0.03
-0.036
-0.04
-0.044
-0.045
-0.046
-0.046
-0.047
-0.047
-0.046
-0.045
-0.044
-0.044
-0.043
-0.043
-0.042
-0.042
-0.042
-0.042
-0.041
-0.041
-0.041
-0.044
-0.045
-0.037
-0.017
0.016
0.064
0.122
0.18
0.239
0.303
0.358
0.399
0.417
0.408
0.367
0.311
0.243
0.173
0.105
0.037
-0.024
-0.071
-0.1
-0.112
-0.107
-0.093
-0.082
-0.074
-0.07
-0.069
-0.068
-0.066
-0.064
-0.063
-0.062
-0.06
-0.06
-0.06
-0.059
-0.06
-0.06
-0.06
-0.058
-0.055
-0.049
-0.043
-0.035
-0.022
-0.013
-0.004
0.005
0.014
0.019
0.029
0.039
0.049
0.058
0.067
0.073
0.079
0.083
0.086
0.089
0.09
0.09
0.091
0.091
0.09
0.088
0.086
0.083
0.08
0.076
0.071
0.065
0.058
0.051
0.042
0.032
0.021
0.012
0.002
-0.007
-0.015
-0.023
-0.032
-0.041
-0.049
-0.057
-0.062
-0.065
-0.065
-0.064
-0.064
-0.063
-0.063
-0.063
-0.064
-0.064
-0.063
-0.063
-0.063
-0.062
-0.062
-0.061
-0.06
-0.059
-0.058
-0.057
-0.058
-0.058
-0.057
-0.056
-0.055
-0.053
-0.051
-0.051
-0.05
-0.05
-0.05
-0.049
-0.048
-0.047
-0.045
-0.045
-0.044
-0.044
-0.044
-0.043
-0.042
-0.042
-0.04
-0.04
-0.039
-0.038
-0.038
-0.038
-0.037
-0.036
-0.036
-0.035
-0.034
-0.035
-0.036
-0.035
-0.033
-0.03
-0.024
-0.016
-0.008
0
0.009
0.016
0.022
0.027
0.032
0.034
0.035
0.034
0.033
0.03
0.024
0.018
0.012
0.003
-0.007
-0.015
-0.021
-0.027
-0.031
-0.031
-0.032
-0.033
-0.034
-0.034
-0.034
-0.034
-0.033
-0.032
-0.031
-0.03
-0.029
-0.028
-0.027
-0.026
-0.025
-0.025
-0.026
-0.03
-0.032
-0.024
-0.005
0.028
0.077
0.134
0.192
0.249
0.317
0.371
0.413
0.431
0.424
0.38
0.323
0.256
0.188
0.122
0.055
-0.008
-0.055
-0.086
-0.098
-0.093
-0.079
-0.067
-0.06
-0.056
-0.056
-0.056
-0.055
-0.054
-0.054
-0.054
-0.053
-0.052
-0.051
-0.05
-0.048
-0.048
-0.048
-0.047
-0.044
-0.04
-0.035
-0.026
-0.016
-0.008
0.001
0.01
0.022
0.031
0.041
0.052
0.062
0.068
0.077
0.084
0.088
0.092
0.094
0.095
0.097
0.098
0.099
0.099
0.098
0.096
0.094
0.09
0.087
0.084
0.077
0.07
0.063
0.054
0.045
0.037
0.027
0.017
0.007
-0.002
-0.01
-0.018
-0.027
-0.036
-0.044
-0.051
-0.057
-0.06
-0.062
-0.062
-0.063
-0.063
-0.062
-0.062
-0.062
-0.061
-0.06
-0.059
-0.059
-0.057
-0.056
-0.055
-0.055
-0.055
-0.055
-0.055
-0.054
-0.053
-0.052
-0.05
-0.049
-0.048
-0.048
-0.048
-0.047
-0.047
-0.047
-0.047
-0.046
-0.047
-0.046
-0.045
-0.045
-0.044
-0.044
-0.044
-0.043
-0.043
-0.044
-0.044
-0.043
-0.043
-0.043
-0.042
-0.041
-0.042
-0.041
-0.04
-0.039
-0.039
-0.039
-0.039
-0.038
-0.035
-0.029
-0.022
-0.014
-0.006
0.003
0.011
0.017
0.022
0.026
0.029
0.029
0.029
0.027
0.024
0.019
0.012
0.005
-0.003
-0.012
-0.02
-0.03
-0.036
-0.04
-0.042
-0.043
-0.042
-0.043
-0.043
-0.043
-0.042
-0.041
-0.041
-0.04
-0.041
-0.04
-0.04
-0.04
-0.04
-0.041
-0.04
-0.04
-0.044
-0.047
-0.04
-0.022
0.008
0.054
0.11
0.167
0.225
0.283
0.339
0.385
0.408
0.405
0.377
0.324
0.256
0.188
0.119
0.051
-0.012
-0.062
-0.097
-0.113
-0.112
-0.099
-0.086
-0.077
-0.073
-0.072
-0.072
-0.071
-0.071
-0.07
-0.069
-0.068
-0.067
-0.066
-0.066
-0.065
-0.065
-0.065
-0.065
-0.058
-0.054
-0.047
-0.038
-0.028
-0.023
-0.014
-0.006
0.001
0.01
0.019
0.029
0.039
0.049
0.058
0.065
0.07
0.075
0.078
0.08
0.082
0.083
0.083
0.083
0.082
0.079
0.077
0.074
0.072
0.069
0.062
0.057
0.05
0.043
0.035
0.028
0.018
0.008
-0.001
-0.011
-0.02
-0.029
-0.039
-0.049
-0.059
-0.067
-0.072
-0.076
-0.077
-0.076
-0.075
-0.074
-0.073
-0.073
-0.073
-0.072
-0.072
-0.07
-0.069
-0.068
-0.067
-0.067
-0.067
-0.067
-0.066
-0.064
-0.062
-0.06
-0.058
-0.058
-0.059
-0.06
-0.06
-0.061
-0.059
-0.058
-0.058
-0.056
-0.055
-0.055
-0.055
-0.055
-0.054
-0.054
-0.054
-0.053
-0.052
-0.051
-0.051
-0.05
-0.048
-0.048
-0.048
-0.049
-0.048
-0.048
-0.048
-0.047
-0.046
-0.046
-0.046
-0.045
-0.044
-0.04
-0.035
-0.028
-0.019
-0.011
-0.001
0.007
0.013
0.018
0.023
0.024
0.025
0.025
0.023
0.021
0.016
0.01
0.003
-0.005
-0.013
-0.021
-0.028
-0.034
-0.038
-0.041
-0.042
-0.043
-0.043
-0.042
-0.041
-0.04
-0.039
-0.038
-0.037
-0.038
-0.038
-0.039
-0.039
-0.038
-0.038
-0.037
-0.037
-0.041
-0.044
-0.038
-0.022
0.008
0.054
0.11
0.167
0.224
0.281
0.336
0.383
0.408
0.382
0.357
0.307
0.241
0.174
0.133
0.065
0
-0.052
-0.087
-0.104
-0.105
-0.093
-0.08
-0.07
-0.064
-0.061
-0.059
-0.058
-0.057
-0.057
-0.057
-0.057
-0.057
-0.056
-0.056
-0.054
-0.052
-0.052
-0.051
-0.045
-0.043
-0.037
-0.028
-0.019
-0.013
-0.003
0.006
0.015
0.025
0.036
0.046
0.056
0.066
0.075
0.081
0.086
0.09
0.092
0.094
0.095
0.095
0.096
0.096
0.094
0.093
0.092
0.09
0.087
0.084
0.081
0.075
0.069
0.061
0.053
0.041
0.03
0.02
0.01
0
-0.009
-0.017
-0.025
-0.034
-0.042
-0.049
-0.054
-0.059
-0.06
-0.06
-0.06
-0.06
-0.059
-0.06
-0.061
-0.06
-0.059
-0.058
-0.056
-0.056
-0.055
-0.054
-0.055
-0.054
-0.055
-0.054
-0.053
-0.052
-0.051
-0.049
-0.049
-0.048
-0.047
-0.046
-0.045
-0.044
-0.044
-0.044
-0.042
-0.041
-0.041
-0.04
-0.04
-0.04
-0.04
-0.039
-0.038
-0.037
-0.037
-0.037
-0.037
-0.037
-0.037
-0.036
-0.035
-0.035
-0.035
-0.035
-0.034
-0.034
-0.034
-0.033
-0.031
-0.028
-0.022
-0.015
-0.007
0.002
0.01
0.018
0.024
0.029
0.033
0.036
0.036
0.037
0.035
0.031
0.026
0.021
0.015
0.007
-0.002
-0.01
-0.017
-0.023
-0.027
-0.029
-0.03
-0.03
-0.031
-0.03
-0.028
-0.028
-0.028
-0.027
-0.028
-0.029
-0.029
-0.029
-0.03
-0.029
-0.029
-0.028
-0.028
-0.031
-0.035
-0.03
-0.014
0.015
0.057
0.113
0.17
0.228
0.286
0.342
0.389
0.415
0.39
0.366
0.317
0.253
0.186
0.146
0.078
0.013
-0.04
-0.077
-0.096
-0.098
-0.086
-0.074
-0.065
-0.059
-0.057
-0.057
-0.056
-0.056
-0.056
-0.055
-0.054
-0.054
-0.054
-0.054
-0.053
-0.052
-0.052
-0.051
-0.048
-0.044
-0.039
-0.031
-0.022
-0.012
-0.003
0.006
0.015
0.024
0.033
0.042
0.051
0.059
0.067
0.073
0.079
0.083
0.087
0.09
0.092
0.093
0.094
0.093
0.092
0.091
0.089
0.087
0.083
0.08
0.077
0.073
0.067
0.06
0.048
0.037
0.025
0.015
0.005
-0.002
-0.01
-0.018
-0.027
-0.036
-0.046
-0.054
-0.06
-0.065
-0.067
-0.067
-0.067
-0.067
-0.066
-0.065
-0.065
-0.065
-0.064
-0.064
-0.064
-0.064
-0.063
-0.064
-0.064
-0.064
-0.063
-0.063
-0.062
-0.061
-0.06
-0.06
-0.059
-0.058
-0.056
-0.056
-0.055
-0.054
-0.053
-0.053
-0.052
-0.053
-0.053
-0.053
-0.052
-0.052
-0.051
-0.051
-0.052
-0.053
-0.053
-0.053
-0.052
-0.049
-0.048
-0.048
-0.046
-0.045
-0.046
-0.045
-0.044
-0.046
-0.046
-0.045
-0.045
-0.042
-0.036
-0.029
-0.02
-0.011
-0.002
0.005
0.011
0.017
0.021
0.023
0.023
0.022
0.02
0.016
0.011
0.005
-0.002
-0.01
-0.018
-0.026
-0.032
-0.038
-0.043
-0.046
-0.048
-0.048
-0.048
-0.048
-0.047
-0.046
-0.045
-0.045
-0.044
-0.044
-0.043
-0.042
-0.042
-0.042
-0.042
-0.042
-0.043
-0.046
-0.05
-0.046
-0.031
-0.003
0.04
0.096
0.153
0.211
0.268
0.324
0.373
0.401
0.404
0.382
0.334
0.268
0.2
0.131
0.064
-0.002
-0.056
-0.092
-0.112
-0.113
-0.101
-0.089
-0.079
-0.073
-0.071
-0.069
-0.067
-0.066
-0.064
-0.063
-0.063
-0.063
-0.063
-0.063
-0.063
-0.063
-0.062
-0.062
-0.06
-0.058
-0.052
-0.045
-0.035
-0.025
-0.016
-0.006
0.004
0.012
0.022
0.032
0.041
0.051
0.061
0.068
0.074
0.078
0.082
0.084
0.085
0.086
0.087
0.087
0.086
0.085
0.083
0.08
0.076
0.073
0.07
0.065
0.058
0.051
0.035
0.025
0.014
0.004
-0.009
-0.013
-0.021
-0.028
-0.037
-0.043
-0.051
-0.06
-0.067
-0.071
-0.073
-0.073
-0.072
-0.071
-0.069
-0.068
-0.067
-0.066
-0.065
-0.065
-0.065
-0.064
-0.063
-0.062
-0.061
-0.06
-0.058
-0.057
-0.057
-0.056
-0.055
-0.055
-0.055
-0.054
-0.053
-0.053
-0.053
-0.052
-0.052
-0.053
-0.053
-0.053
-0.053
-0.052
-0.052
-0.051
-0.05
-0.049
-0.047
-0.046
-0.046
-0.045
-0.044
-0.044
-0.044
-0.043
-0.042
-0.042
-0.042
-0.042
-0.041
-0.04
-0.04
-0.038
-0.036
-0.034
-0.029
-0.023
-0.015
-0.007
0.001
0.009
0.016
0.022
0.026
0.029
0.03
0.03
0.029
0.025
0.02
0.015
0.008
0.001
-0.008
-0.016
-0.023
-0.03
-0.034
-0.035
-0.035
-0.035
-0.035
-0.035
-0.034
-0.034
-0.034
-0.033
-0.033
-0.033
-0.033
-0.032
-0.031
-0.031
-0.03
-0.03
-0.03
-0.033
-0.038
-0.034
-0.019
0.009
0.051
0.105
0.163
0.22
0.278
0.333
0.382
0.411
0.415
0.395
0.348
0.284
0.191
0.122
0.053
-0.012
-0.065
-0.076
-0.096
-0.098
-0.086
-0.073
-0.063
-0.057
-0.054
-0.053
-0.052
-0.051
-0.051
-0.05
-0.049
-0.049
-0.049
-0.048
-0.047
-0.047
-0.046
-0.045
-0.044
-0.04
-0.036
-0.029
-0.015
-0.005
0.003
0.013
0.021
0.025
0.034
0.044
0.055
0.065
0.074
0.082
0.088
0.092
0.096
0.099
0.101
0.103
0.104
0.104
0.103
0.102
0.1
0.097
0.094
0.09
0.086
0.08
0.074
0.067
0.059
0.049
0.038
0.028
0.018
0.008
-0.001
-0.009
-0.018
-0.028
-0.036
-0.044
-0.05
-0.054
-0.057
-0.057
-0.056
-0.055
-0.054
-0.054
-0.055
-0.055
-0.056
-0.056
-0.056
-0.056
-0.054
-0.053
-0.052
-0.051
-0.049
-0.049
-0.049
-0.049
-0.048
-0.048
-0.047
-0.046
-0.045
-0.044
-0.045
-0.045
-0.045
-0.044
-0.043
-0.043
-0.043
-0.043
-0.043
-0.042
-0.041
-0.04
-0.038
-0.037
-0.037
-0.037
-0.036
-0.036
-0.036
-0.037
-0.037
-0.037
-0.037
-0.036
-0.036
-0.036
-0.035
-0.034
-0.033
-0.029
-0.025
-0.02
-0.012
-0.003
0.005
0.013
0.02
0.025
0.029
0.032
0.034
0.033
0.032
0.028
0.023
0.017
0.01
0.003
-0.006
-0.014
-0.022
-0.027
-0.031
-0.033
-0.033
-0.032
-0.032
-0.032
-0.032
-0.032
-0.032
-0.033
-0.032
-0.032
-0.032
-0.032
-0.031
-0.03
-0.03
-0.03
-0.03
-0.034
-0.039
-0.036
-0.022
0.004
0.045
0.099
0.157
0.214
0.27
0.326
0.376
0.406
0.383
0.363
0.317
0.253
0.184
0.146
0.079
0.013
-0.035
-0.074
-0.096
-0.099
-0.088
-0.083
-0.074
-0.067
-0.065
-0.065
-0.064
-0.063
-0.063
-0.063
-0.062
-0.061
-0.061
-0.061
-0.061
-0.061
-0.061
-0.06
-0.057
-0.053
-0.048
-0.04
-0.031
-0.022
-0.013
-0.005
0.005
0.013
0.023
0.033
0.043
0.052
0.06
0.068
0.074
0.078
0.082
0.084
0.085
0.086
0.088
0.089
0.089
0.087
0.086
0.084
0.081
0.078
0.074
0.069
0.061
0.053
0.044
0.033
0.022
0.013
0
-0.01
-0.019
-0.027
-0.036
-0.042
-0.05
-0.058
-0.064
-0.069
-0.072
-0.074
-0.074
-0.075
-0.074
-0.072
-0.071
-0.07
-0.069
-0.069
-0.069
-0.069
-0.068
-0.068
-0.067
-0.066
-0.065
-0.064
-0.064
-0.064
-0.062
-0.062
-0.061
-0.06
-0.058
-0.059
-0.058
-0.058
-0.057
-0.057
-0.056
-0.054
-0.053
-0.054
-0.053
-0.052
-0.052
-0.052
-0.052
-0.052
-0.052
-0.052
-0.053
-0.053
-0.052
-0.052
-0.051
-0.049
-0.049
-0.048
-0.046
-0.046
-0.045
-0.044
-0.043
-0.04
-0.034
-0.027
-0.018
-0.01
-0.001
0.006
0.012
0.017
0.021
0.024
0.025
0.025
0.025
0.022
0.018
0.012
0.006
-0.003
-0.012
-0.021
-0.029
-0.034
-0.038
-0.041
-0.041
-0.041
-0.041
-0.042
-0.041
-0.041
-0.041
-0.041
-0.04
-0.04
-0.04
-0.04
-0.04
-0.04
-0.039
-0.039
-0.039
-0.041
-0.045
-0.043
-0.03
-0.004
0.036
0.09
0.147
0.205
0.262
0.319
0.369
0.4
0.406
0.387
0.343
0.28
0.212
0.143
0.075
0.008
-0.047
-0.086
-0.108
-0.113
-0.102
-0.089
-0.079
-0.072
-0.07
-0.069
-0.068
-0.068
-0.067
-0.065
-0.064
-0.063
-0.063
-0.062
-0.061
-0.061
-0.061
-0.06
-0.059
-0.055
-0.05
-0.042
-0.034
-0.024
-0.015
-0.007
0.002
0.011
0.021
0.031
0.042
0.052
0.061
0.069
0.076
0.08
0.083
0.086
0.087
0.088
0.09
0.09
0.089
0.087
0.086
0.084
0.081
0.078
0.074
0.069
0.063
0.055
0.047
0.037
0.026
0.016
0.002
-0.006
-0.015
-0.022
-0.03
-0.034
-0.044
-0.053
-0.06
-0.065
-0.068
-0.068
-0.068
-0.068
-0.067
-0.066
-0.065
-0.064
-0.062
-0.062
-0.061
-0.061
-0.061
-0.061
-0.061
-0.061
-0.06
-0.059
-0.058
-0.056
-0.054
-0.053
-0.053
-0.051
-0.05
-0.05
-0.05
-0.049
-0.048
-0.048
-0.047
-0.047
-0.047
-0.047
-0.047
-0.046
-0.045
-0.045
-0.043
-0.042
-0.041
-0.04
-0.039
-0.039
-0.038
-0.037
-0.036
-0.035
-0.035
-0.035
-0.036
-0.037
-0.037
-0.037
-0.033
-0.03
-0.025
-0.017
-0.008
-0.002
0.006
0.014
0.02
0.026
0.031
0.034
0.036
0.036
0.034
0.032
0.027
0.022
0.015
0.008
-0.001
-0.009
-0.016
-0.021
-0.025
-0.027
-0.028
-0.028
-0.029
-0.03
-0.032
-0.033
-0.033
-0.031
-0.03
-0.028
-0.027
-0.027
-0.027
-0.027
-0.027
-0.028
-0.028
-0.031
-0.036
-0.034
-0.02
0.007
0.047
0.101
0.159
0.216
0.272
0.328
0.381
0.414
0.422
0.404
0.362
0.297
0.228
0.16
0.092
0.026
-0.023
-0.064
-0.086
-0.091
-0.08
-0.075
-0.065
-0.058
-0.056
-0.057
-0.055
-0.054
-0.054
-0.054
-0.054
-0.053
-0.052
-0.051
-0.049
-0.048
-0.047
-0.046
-0.044
-0.041
-0.037
-0.03
-0.022
-0.013
-0.004
0.005
0.019
0.027
0.035
0.045
0.054
0.059
0.069
0.076
0.082
0.087
0.09
0.092
0.093
0.095
0.096
0.096
0.095
0.095
0.094
0.092
0.089
0.086
0.081
0.076
0.069
0.061
0.052
0.041
0.03
0.019
0.009
0
-0.008
-0.016
-0.024
-0.032
-0.041
-0.049
-0.056
-0.061
-0.064
-0.065
-0.064
-0.064
-0.063
-0.062
-0.063
-0.063
-0.062
-0.062
-0.062
-0.061
-0.059
-0.059
-0.059
-0.059
-0.059
-0.058
-0.057
-0.056
-0.054
-0.053
-0.053
-0.052
-0.05
-0.05
-0.05
-0.049
-0.049
-0.049
-0.049
-0.048
-0.048
-0.048
-0.048
-0.047
-0.046
-0.046
-0.045
-0.044
-0.045
-0.045
-0.045
-0.045
-0.045
-0.045
-0.045
-0.045
-0.044
-0.044
-0.043
-0.042
-0.042
-0.042
-0.037
-0.034
-0.029
-0.022
-0.013
-0.01
-0.001
0.007
0.014
0.019
0.024
0.027
0.027
0.027
0.025
0.022
0.017
0.011
0.004
-0.004
-0.013
-0.021
-0.028
-0.033
-0.038
-0.041
-0.043
-0.043
-0.044
-0.045
-0.044
-0.043
-0.042
-0.041
-0.04
-0.04
-0.04
-0.041
-0.04
-0.04
-0.039
-0.038
-0.038
-0.041
-0.046
-0.045
-0.032
-0.007
0.033
0.086
0.143
0.201
0.258
0.314
0.366
0.4
0.409
0.393
0.351
0.289
0.221
0.153
0.084
0.016
-0.036
-0.077
-0.1
-0.107
-0.097
-0.089
-0.08
-0.074
-0.071
-0.071
-0.071
-0.07
-0.068
-0.067
-0.066
-0.065
-0.065
-0.065
-0.065
-0.065
-0.064
-0.063
-0.062
-0.059
-0.053
-0.047
-0.038
-0.029
-0.02
-0.011
0
0.009
0.018
0.028
0.038
0.045
0.054
0.063
0.069
0.074
0.077
0.079
0.08
0.081
0.082
0.083
0.083
0.083
0.082
0.079
0.076
0.073
0.069
0.065
0.059
0.051
0.043
0.033
0.022
0.012
