0.755
0.807
0.811
0.766
0.674
0.548
0.414
0.273
0.137
0.011
-0.09
-0.16
-0.198
-0.2
-0.176
-0.151
-0.133
-0.122
-0.118
-0.116
-0.115
-0.113
-0.112
-0.111
-0.111
-0.11
-0.109
-0.109
-0.11
-0.11
-0.109
-0.108
-0.103
-0.092
-0.081
-0.066
-0.047
-0.028
-0.011
0.007
0.033
0.05
0.069
0.089
0.108
0.116
0.133
0.149
0.162
0.17
0.176
0.18
0.182
0.184
0.186
0.187
0.186
0.184
0.179
0.174
0.168
0.16
0.152
0.141
0.128
0.113
0.096
0.074
0.052
0.033
0.014
-0.004
-0.021
-0.038
-0.055
-0.073
-0.091
-0.108
-0.12
-0.127
-0.131
-0.131
-0.13
-0.129
-0.128
-0.127
-0.126
-0.125
-0.124
-0.123
-0.122
-0.122
-0.121
-0.12
-0.12
-0.119
-0.117
-0.116
-0.114
-0.113
-0.111
-0.11
-0.11
-0.11
-0.108
-0.109
-0.108
-0.106
-0.104
-0.102
-0.1
-0.099
-0.098
-0.098
-0.097
-0.096
-0.095
-0.094
-0.092
-0.092
-0.091
-0.09
-0.089
-0.089
-0.089
-0.089
-0.088
-0.086
-0.085
-0.084
-0.084
-0.084
-0.085
-0.085
-0.083
-0.077
-0.066
-0.05
-0.033
-0.013
0.004
0.019
0.032
0.042
0.049
0.053
0.053
0.052
0.05
0.044
0.035
0.023
0.007
-0.009
-0.027
-0.042
-0.057
-0.068
-0.077
-0.082
-0.084
-0.083
-0.083
-0.082
-0.089
-0.088
-0.087
-0.087
-0.086
-0.078
-0.078
-0.077
-0.076
-0.075
-0.074
-0.073
-0.074
-0.08
-0.088
-0.079
-0.048
0.008
0.097
0.21
0.323
0.432
0.541
0.655
0.755
0.807
0.809
0.762
0.662
0.527
0.394
0.266
0.136
0.002
-0.107
-0.177
-0.213
-0.214
-0.181
-0.155
-0.137
-0.126
-0.122
-0.128
-0.127
-0.126
-0.125
-0.125
-0.123
-0.122
-0.121
-0.12
-0.119
-0.119
-0.119
-0.118
-0.113
-0.105
-0.092
-0.075
-0.055
-0.038
-0.021
-0.005
0.018
0.034
0.052
0.072
0.093
0.107
0.124
0.139
0.15
0.158
0.165
0.169
0.172
0.174
0.176
0.176
0.174
0.171
0.168
0.163
0.157
0.15
0.143
0.133
0.119
0.103
0.085
0.065
0.045
0.024
-0.004
-0.022
-0.039
-0.055
-0.072
-0.083
-0.101
-0.115
-0.126
-0.133
-0.136
-0.137
-0.135
-0.135
-0.134
-0.134
-0.133
-0.132
-0.13
-0.128
-0.127
-0.126
-0.124
-0.124
-0.123
-0.122
-0.12
-0.12
-0.119
-0.118
-0.117
-0.116
-0.115
-0.114
-0.112
-0.111
-0.11
-0.109
-0.107
-0.106
-0.105
-0.104
-0.103
-0.104
-0.103
-0.101
-0.1
-0.099
-0.097
-0.097
-0.096
-0.095
-0.094
-0.092
-0.091
-0.09
-0.088
-0.086
-0.085
-0.083
-0.081
-0.08
-0.081
-0.081
-0.079
-0.073
-0.063
-0.05
-0.032
-0.014
0.004
0.019
0.032
0.042
0.05
0.054
0.056
0.055
0.053
0.047
0.037
0.025
0.011
-0.004
-0.022
-0.039
-0.052
-0.063
-0.071
-0.076
-0.079
-0.079
-0.08
-0.079
-0.07
-0.068
-0.067
-0.066
-0.065
-0.072
-0.071
-0.07
-0.07
-0.069
-0.068
-0.067
-0.067
-0.074
-0.081
-0.072
-0.038
0.018
0.102
0.208
0.325
0.444
0.556
0.663
0.755
0.805
0.807
0.759
0.664
0.538
0.401
0.262
0.128
0.005
-0.094
-0.163
-0.2
-0.201
-0.177
-0.152
-0.135
-0.124
-0.12
-0.12
-0.118
-0.117
-0.116
-0.115
-0.114
-0.113
-0.112
-0.111
-0.11
-0.108
-0.107
-0.105
-0.1
-0.092
-0.081
-0.066
-0.047
-0.028
-0.009
0.008
0.038
0.055
0.074
0.093
0.112
0.116
0.133
0.148
0.16
0.168
0.174
0.179
0.182
0.184
0.186
0.187
0.185
0.183
0.178
0.173
0.168
0.162
0.154
0.145
0.118
0.104
0.086
0.063
0.041
0.038
0.019
0.001
-0.017
-0.034
-0.066
-0.083
-0.1
-0.116
-0.127
-0.119
-0.124
-0.125
-0.124
-0.123
-0.121
-0.119
-0.117
-0.116
-0.115
-0.115
-0.115
-0.114
-0.113
-0.111
-0.11
-0.109
-0.108
-0.107
-0.106
-0.105
-0.103
-0.101
-0.099
-0.098
-0.097
-0.096
-0.095
-0.094
-0.093
-0.093
-0.093
-0.092
-0.091
-0.09
-0.089
-0.087
-0.086
-0.084
-0.083
-0.082
-0.082
-0.081
-0.08
-0.079
-0.078
-0.077
-0.074
-0.073
-0.073
-0.072
-0.072
-0.072
-0.073
-0.072
-0.07
-0.063
-0.051
-0.035
-0.018
-0.001
0.014
0.028
0.04
0.05
0.057
0.061
0.063
0.062
0.059
0.053
0.044
0.033
0.016
0
-0.017
-0.032
-0.046
-0.054
-0.062
-0.066
-0.067
-0.067
-0.068
-0.068
-0.077
-0.077
-0.077
-0.075
-0.074
-0.063
-0.062
-0.06
-0.059
-0.059
-0.058
-0.057
-0.058
-0.065
-0.072
-0.062
-0.03
0.028
0.119
0.233
0.343
0.451
0.562
0.678
0.775
0.824
0.824
0.773
0.669
0.533
0.401
0.272
0.14
0.005
-0.101
-0.169
-0.202
-0.201
-0.175
-0.149
-0.132
-0.122
-0.118
-0.116
-0.115
-0.114
-0.114
-0.113
-0.113
-0.113
-0.113
-0.111
-0.109
-0.108
-0.107
-0.105
-0.101
-0.094
-0.082
-0.067
-0.049
-0.031
-0.014
0.005
0.027
0.044
0.062
0.081
0.102
0.117
0.134
0.148
0.159
0.169
0.176
0.18
0.183
0.185
0.185
0.184
0.182
0.178
0.174
0.167
0.161
0.155
0.148
0.139
0.126
0.11
0.092
0.071
0.049
0.027
-0.004
-0.024
-0.041
-0.057
-0.075
-0.083
-0.1
-0.114
-0.125
-0.133
-0.137
-0.137
-0.135
-0.134
-0.133
-0.131
-0.13
-0.129
-0.128
-0.127
-0.127
-0.126
-0.123
-0.122
-0.12
-0.119
-0.117
-0.117
-0.117
-0.116
-0.114
-0.113
-0.112
-0.111
-0.11
-0.11
-0.11
-0.109
-0.107
-0.105
-0.103
-0.102
-0.1
-0.1
-0.099
-0.098
-0.097
-0.097
-0.096
-0.095
-0.095
-0.094
-0.092
-0.092
-0.091
-0.09
-0.089
-0.089
-0.088
-0.087
-0.086
-0.085
-0.085
-0.084
-0.066
-0.059
-0.048
-0.034
-0.017
-0.015
0.002
0.015
0.027
0.037
0.045
0.05
0.051
0.05
0.047
0.041
0.03
0.017
0.003
-0.013
-0.03
-0.047
-0.06
-0.069
-0.076
-0.081
-0.082
-0.082
-0.083
-0.082
-0.08
-0.079
-0.08
-0.079
-0.073
-0.074
-0.074
-0.073
-0.072
-0.077
-0.077
-0.076
-0.077
-0.084
-0.091
-0.079
-0.044
0.014
0.099
0.207
0.323
0.442
0.553
0.659
0.749
0.798
0.797
0.747
0.651
0.523
0.385
0.245
0.113
-0.011
-0.109
-0.177
-0.212
-0.212
-0.187
-0.162
-0.145
-0.135
-0.131
-0.13
-0.129
-0.126
-0.125
-0.124
-0.122
-0.121
-0.119
-0.118
-0.116
-0.115
-0.115
-0.115
-0.11
-0.102
-0.091
-0.076
-0.056
-0.037
-0.019
-0.002
0.031
0.049
0.068
0.088
0.106
0.108
0.126
0.142
0.153
0.162
0.168
0.172
0.175
0.177
0.178
0.177
0.175
0.173
0.168
0.162
0.157
0.15
0.142
0.132
0.119
0.105
0.087
0.065
0.044
0.024
0.006
-0.013
-0.031
-0.047
-0.079
-0.095
-0.113
-0.129
-0.141
-0.133
-0.137
-0.137
-0.136
-0.135
-0.133
-0.131
-0.13
-0.129
-0.127
-0.126
-0.124
-0.124
-0.123
-0.123
-0.123
-0.122
-0.12
-0.118
-0.117
-0.115
-0.114
-0.113
-0.112
-0.11
-0.109
-0.107
-0.106
-0.104
-0.102
-0.101
-0.1
-0.098
-0.097
-0.097
-0.096
-0.095
-0.095
-0.094
-0.092
-0.091
-0.09
-0.089
-0.088
-0.089
-0.089
-0.088
-0.087
-0.086
-0.084
-0.083
-0.081
-0.081
-0.08
-0.079
-0.077
-0.07
-0.06
-0.044
-0.027
-0.01
0.006
0.02
0.033
0.044
0.052
0.057
0.059
0.058
0.055
0.049
0.04
0.028
0.014
-0.002
-0.019
-0.035
-0.048
-0.059
-0.067
-0.071
-0.072
-0.072
-0.073
-0.073
-0.08
-0.079
-0.077
-0.076
-0.075
-0.066
-0.065
-0.064
-0.063
-0.062
-0.06
-0.059
-0.061
-0.069
-0.077
-0.065
-0.032
0.028
0.121
0.234
0.344
0.453
0.566
0.681
0.775
0.82
0.817
0.764
0.658
0.524
0.394
0.265
0.13
-0.004
-0.107
-0.172
-0.203
-0.2
-0.172
-0.146
-0.129
-0.12
-0.116
-0.115
-0.115
-0.113
-0.111
-0.111
-0.111
-0.11
-0.11
-0.109
-0.108
-0.106
-0.104
-0.102
-0.096
-0.088
-0.075
-0.059
-0.041
-0.024
-0.006
0.012
0.029
0.046
0.064
0.083
0.103
0.123
0.14
0.154
0.166
0.175
0.181
0.185
0.186
0.187
0.189
0.188
0.186
0.183
0.179
0.173
0.167
0.161
0.154
0.144
0.131
0.116
0.098
0.078
0.058
0.036
0.015
-0.003
-0.021
-0.039
-0.059
-0.077
-0.095
-0.109
-0.119
-0.126
-0.129
-0.127
-0.125
-0.124
-0.124
-0.123
-0.123
-0.122
-0.12
-0.118
-0.116
-0.115
-0.115
-0.114
-0.113
-0.112
-0.111
-0.108
-0.108
-0.107
-0.105
-0.104
-0.103
-0.102
-0.101
-0.1
-0.1
-0.099
-0.097
-0.096
-0.096
-0.094
-0.094
-0.093
-0.093
-0.092
-0.091
-0.09
-0.088
-0.088
-0.088
-0.088
-0.088
-0.087
-0.087
-0.086
-0.085
-0.084
-0.084
-0.083
-0.082
-0.082
-0.081
-0.079
-0.075
-0.068
-0.057
-0.043
-0.025
-0.006
0.012
0.027
0.038
0.047
0.055
0.059
0.059
0.058
0.055
0.048
0.037
0.026
0.012
-0.004
-0.023
-0.039
-0.052
-0.062
-0.069
-0.073
-0.073
-0.074
-0.075
-0.074
-0.067
-0.067
-0.067
-0.066
-0.065
-0.07
-0.07
-0.07
-0.071
-0.071
-0.071
-0.07
-0.072
-0.079
-0.084
-0.071
-0.034
0.025
0.111
0.22
0.338
0.455
0.565
0.671
0.76
0.806
0.802
0.748
0.649
0.518
0.377
0.238
0.107
-0.016
-0.111
-0.178
-0.21
-0.207
-0.181
-0.157
-0.139
-0.129
-0.126
-0.125
-0.124
-0.123
-0.122
-0.121
-0.12
-0.118
-0.118
-0.117
-0.125
-0.124
-0.124
-0.122
-0.118
-0.101
-0.09
-0.074
-0.055
-0.036
-0.018
-0.002
0.015
0.033
0.052
0.07
0.089
0.108
0.125
0.141
0.152
0.161
0.166
0.17
0.173
0.175
0.176
0.176
0.174
0.171
0.166
0.16
0.155
0.148
0.14
0.13
0.118
0.102
0.083
0.061
0.04
0.021
0.002
-0.017
-0.035
-0.051
-0.068
-0.085
-0.103
-0.118
-0.13
-0.138
-0.141
-0.14
-0.139
-0.138
-0.136
-0.135
-0.134
-0.133
-0.131
-0.131
-0.13
-0.128
-0.127
-0.125
-0.124
-0.122
-0.121
-0.12
-0.12
-0.119
-0.117
-0.116
-0.115
-0.113
-0.113
-0.111
-0.11
-0.109
-0.108
-0.107
-0.106
-0.106
-0.105
-0.105
-0.104
-0.103
-0.102
-0.101
-0.1
-0.099
-0.098
-0.097
-0.096
-0.096
-0.096
-0.095
-0.095
-0.094
-0.092
-0.091
-0.088
-0.086
-0.084
-0.083
-0.079
-0.072
-0.062
-0.048
-0.031
-0.014
0.002
0.017
0.031
0.041
0.047
0.051
0.052
0.052
0.049
0.043
0.033
0.02
-0.001
-0.017
-0.034
-0.049
-0.063
-0.068
-0.076
-0.08
-0.081
-0.081
-0.081
-0.081
-0.079
-0.078
-0.077
-0.076
-0.075
-0.075
-0.075
-0.074
-0.073
-0.074
-0.074
-0.073
-0.074
-0.082
-0.088
-0.075
-0.039
0.024
0.12
0.233
0.343
0.451
0.564
0.678
0.768
0.81
0.805
0.748
0.64
0.506
0.316
0.186
0.051
-0.081
-0.181
-0.181
-0.21
-0.206
-0.179
-0.154
-0.138
-0.129
-0.127
-0.126
-0.125
-0.123
-0.121
-0.12
-0.118
-0.116
-0.116
-0.115
-0.113
-0.112
-0.112
-0.11
-0.105
-0.097
-0.084
-0.068
-0.049
-0.031
-0.012
0.006
0.024
0.041
0.059
0.078
0.099
0.119
0.135
0.149
0.16
0.168
0.174
0.178
0.181
0.184
0.185
0.185
0.183
0.18
0.176
0.17
0.164
0.157
0.15
0.139
0.126
0.11
0.092
0.071
0.049
0.027
-0.005
-0.022
-0.038
-0.054
-0.07
-0.075
-0.092
-0.107
-0.119
-0.128
-0.132
-0.131
-0.13
-0.128
-0.126
-0.124
-0.123
-0.121
-0.12
-0.119
-0.118
-0.117
-0.115
-0.114
-0.112
-0.111
-0.109
-0.107
-0.106
-0.105
-0.107
-0.107
-0.106
-0.104
-0.103
-0.098
-0.097
-0.095
-0.094
-0.093
-0.091
-0.091
-0.091
-0.091
-0.089
-0.088
-0.087
-0.086
-0.084
-0.083
-0.083
-0.083
-0.082
-0.082
-0.082
-0.081
-0.079
-0.078
-0.077
-0.076
-0.076
-0.075
-0.074
-0.072
-0.067
-0.059
-0.048
-0.034
-0.017
0.002
0.019
0.033
0.045
0.055
0.062
0.066
0.067
0.066
0.062
0.055
0.044
0.032
0.019
0.003
-0.015
-0.031
-0.044
-0.054
-0.062
-0.066
-0.067
-0.069
-0.07
-0.07
-0.068
-0.067
-0.066
-0.065
-0.057
-0.057
-0.057
-0.056
-0.056
-0.063
-0.062
-0.061
-0.062
-0.07
-0.075
-0.061
-0.023
0.038
0.126
0.237
0.357
0.472
0.581
0.686
0.772
0.814
0.807
0.75
0.648
0.516
0.327
0.189
0.059
-0.061
-0.156
-0.169
-0.199
-0.194
-0.168
-0.145
-0.129
-0.12
-0.117
-0.116
-0.114
-0.113
-0.111
-0.109
-0.108
-0.107
-0.107
-0.107
-0.106
-0.105
-0.103
-0.101
-0.095
-0.087
-0.076
-0.06
-0.04
-0.021
-0.003
0.014
0.031
0.048
0.067
0.086
0.105
0.124
0.142
0.158
0.169
0.176
0.181
0.185
0.187
0.188
0.189
0.189
0.187
0.184
0.18
0.174
0.168
0.161
0.152
0.14
0.128
0.112
0.092
0.071
0.05
0.03
0.012
-0.007
-0.024
-0.04
-0.067
-0.084
-0.102
-0.118
-0.128
-0.125
-0.129
-0.129
-0.13
-0.13
-0.128
-0.127
-0.126
-0.123
-0.121
-0.119
-0.118
-0.116
-0.115
-0.115
-0.114
-0.113
-0.111
-0.111
-0.11
-0.11
-0.103
-0.103
-0.102
-0.101
-0.099
-0.106
-0.105
-0.104
-0.103
-0.103
-0.102
-0.101
-0.1
-0.099
-0.098
-0.096
-0.096
-0.096
-0.095
-0.094
-0.094
-0.093
-0.091
-0.091
-0.09
-0.088
-0.087
-0.086
-0.085
-0.083
-0.082
-0.081
-0.08
-0.079
-0.075
-0.068
-0.058
-0.043
-0.027
-0.011
0.004
0.019
0.031
0.041
0.048
0.052
0.053
0.05
0.046
0.039
0.029
0.016
-0.006
-0.022
-0.039
-0.054
-0.067
-0.069
-0.075
-0.078
-0.079
-0.078
-0.078
-0.077
-0.083
-0.082
-0.082
-0.081
-0.081
-0.074
-0.074
-0.073
-0.073
-0.072
-0.071
-0.07
-0.073
-0.082
-0.088
-0.074
-0.037
0.028
0.126
0.237
0.347
0.457
0.572
0.686
0.773
0.812
0.802
0.74
0.629
0.496
0.307
0.176
0.039
-0.092
-0.188
-0.186
-0.213
-0.207
-0.178
-0.154
-0.138
-0.13
-0.127
-0.126
-0.125
-0.123
-0.121
-0.12
-0.118
-0.117
-0.117
-0.116
-0.115
-0.114
-0.112
-0.111
-0.105
-0.097
-0.085
-0.07
-0.053
-0.036
-0.017
0.003
0.021
0.039
0.058
0.078
0.098
0.116
0.132
0.146
0.157
0.164
0.17
0.173
0.175
0.177
0.178
0.178
0.176
0.173
0.172
0.166
0.159
0.153
0.144
0.128
0.114
0.098
0.081
0.061
0.04
0.019
-0.013
-0.031
-0.047
-0.063
-0.081
-0.086
-0.103
-0.118
-0.129
-0.137
-0.139
-0.138
-0.137
-0.135
-0.134
-0.134
-0.134
-0.134
-0.133
-0.131
-0.129
-0.127
-0.124
-0.123
-0.122
-0.121
-0.121
-0.12
-0.118
-0.117
-0.121
-0.12
-0.119
-0.117
-0.116
-0.11
-0.109
-0.107
-0.105
-0.104
-0.102
-0.101
-0.099
-0.098
-0.097
-0.096
-0.096
-0.095
-0.093
-0.091
-0.09
-0.09
-0.089
-0.089
-0.089
-0.087
-0.085
-0.084
-0.082
-0.081
-0.08
-0.08
-0.079
-0.077
-0.072
-0.065
-0.053
-0.039
-0.022
-0.004
0.012
0.026
0.037
0.047
0.054
0.057
0.058
0.056
0.052
0.045
0.035
0.023
0.01
-0.007
-0.025
-0.041
-0.054
-0.063
-0.07
-0.073
-0.073
-0.074
-0.074
-0.074
-0.07
-0.07
-0.07
-0.069
-0.069
-0.071
-0.071
-0.07
-0.07
-0.069
-0.068
-0.066
-0.069
-0.077
-0.082
-0.065
-0.025
0.037
0.128
0.241
0.36
0.475
0.583
0.689
0.774
0.815
0.805
0.746
0.641
0.506
0.314
0.177
0.048
-0.072
-0.165
-0.176
-0.204
-0.197
-0.171
-0.147
-0.129
-0.12
-0.117
-0.116
-0.114
-0.112
-0.112
-0.111
-0.109
-0.108
-0.107
-0.105
-0.104
-0.103
-0.103
-0.101
-0.096
-0.087
-0.075
-0.059
-0.04
-0.021
-0.004
0.013
0.031
0.05
0.069
0.088
0.109
0.129
0.147
0.16
0.171
0.178
0.183
0.187
0.19
0.192
0.193
0.193
0.191
0.188
0.184
0.178
0.172
0.165
0.156
0.146
0.133
0.117
0.098
0.076
0.055
0.036
0.019
-0.001
-0.018
-0.034
-0.05
-0.07
-0.089
-0.103
-0.115
-0.122
-0.124
-0.124
-0.122
-0.12
-0.118
-0.116
-0.115
-0.115
-0.114
-0.114
-0.114
-0.113
-0.112
-0.111
-0.11
-0.109
-0.106
-0.104
-0.103
-0.101
-0.091
-0.091
-0.09
-0.089
-0.088
-0.095
-0.094
-0.092
-0.091
-0.09
-0.089
-0.088
-0.086
-0.085
-0.083
-0.082
-0.081
-0.08
-0.079
-0.079
-0.079
-0.078
-0.077
-0.077
-0.076
-0.075
-0.073
-0.071
-0.071
-0.07
-0.068
-0.067
-0.067
-0.065
-0.06
-0.051
-0.038
-0.023
-0.008
0.008
0.024
0.038
0.051
0.062
0.069
0.072
0.072
0.07
0.065
0.057
0.045
0.03
0.015
-0.001
-0.018
-0.032
-0.045
-0.056
-0.063
-0.067
-0.068
-0.068
-0.068
-0.067
-0.066
-0.066
-0.066
-0.066
-0.074
-0.074
-0.074
-0.072
-0.07
-0.06
-0.059
-0.059
-0.063
-0.074
-0.076
-0.058
-0.015
0.057
0.16
0.272
0.38
0.49
0.606
0.717
0.793
0.821
0.801
0.728
0.609
0.476
0.291
0.16
0.021
-0.104
-0.191
-0.184
-0.203
-0.188
-0.159
-0.137
-0.124
-0.117
-0.116
-0.116
-0.115
-0.115
-0.115
-0.114
-0.113
-0.112
-0.112
-0.11
-0.109
-0.109
-0.108
-0.106
-0.099
-0.089
-0.075
-0.059
-0.038
-0.02
-0.002
0.016
0.033
0.046
0.065
0.084
0.106
0.125
0.141
0.155
0.166
0.172
0.176
0.179
0.181
0.182
0.184
0.183
0.181
0.176
0.173
0.166
0.158
0.151
0.143
0.129
0.115
0.098
0.079
0.059
0.038
0.017
-0.017
-0.034
-0.052
-0.07
-0.087
-0.089
-0.106
-0.119
-0.129
-0.135
-0.136
-0.135
-0.135
-0.134
-0.133
-0.133
-0.133
-0.132
-0.13
-0.129
-0.128
-0.127
-0.125
-0.124
-0.123
-0.122
-0.121
-0.12
-0.119
-0.118
-0.125
-0.124
-0.123
-0.121
-0.119
-0.11
-0.11
-0.108
-0.106
-0.105
-0.103
-0.102
-0.101
-0.101
-0.101
-0.101
-0.101
-0.101
-0.1
-0.1
-0.099
-0.098
-0.097
-0.096
-0.094
-0.093
-0.091
-0.09
-0.089
-0.088
-0.087
-0.085
-0.085
-0.083
-0.078
-0.071
-0.062
-0.049
-0.031
-0.014
0.003
0.017
0.037
0.047
0.054
0.057
0.056
0.046
0.042
0.035
0.024
0.011
-0.002
-0.019
-0.036
-0.051
-0.063
-0.071
-0.079
-0.082
-0.083
-0.084
-0.085
-0.085
-0.084
-0.084
-0.084
-0.084
-0.083
-0.083
-0.082
-0.08
-0.079
-0.078
-0.077
-0.076
-0.079
-0.087
-0.091
-0.074
-0.035
0.029
0.121
0.236
0.356
0.469
0.577
0.681
0.765
0.802
0.789
0.727
0.62
0.484
0.292
0.158
0.029
-0.089
-0.183
-0.19
-0.214
-0.206
-0.181
-0.157
-0.141
-0.132
-0.129
-0.127
-0.125
-0.124
-0.123
-0.122
-0.118
-0.117
-0.117
-0.116
-0.114
-0.116
-0.115
-0.112
-0.105
-0.096
-0.084
-0.067
-0.048
-0.031
-0.014
0.003
0.021
0.04
0.061
0.079
0.098
0.117
0.134
0.147
0.157
0.165
0.171
0.176
0.179
0.181
0.182
0.18
0.176
0.172
0.168
0.162
0.157
0.15
0.142
0.131
0.117
0.101
0.081
0.06
0.04
0.021
0.001
-0.018
-0.035
-0.051
-0.066
-0.083
-0.101
-0.116
-0.126
-0.134
-0.136
-0.136
-0.134
-0.133
-0.131
-0.131
-0.13
-0.128
-0.127
-0.126
-0.124
-0.122
-0.121
-0.119
-0.118
-0.116
-0.114
-0.112
-0.111
-0.11
-0.1
-0.099
-0.097
-0.095
-0.094
-0.102
-0.102
-0.101
-0.1
-0.1
-0.098
-0.096
-0.095
-0.094
-0.093
-0.092
-0.092
-0.091
-0.089
-0.088
-0.086
-0.085
-0.085
-0.084
-0.084
-0.082
-0.081
-0.08
-0.079
-0.078
-0.069
-0.067
-0.067
-0.064
-0.059
-0.059
-0.047
-0.032
-0.015
0.001
0.017
0.031
0.043
0.052
0.057
0.061
0.061
0.059
0.055
0.049
0.038
0.024
0.01
-0.006
-0.022
-0.036
-0.048
-0.058
-0.065
-0.069
-0.069
-0.07
-0.071
-0.071
-0.07
-0.07
-0.068
-0.067
-0.065
-0.064
-0.063
-0.062
-0.062
-0.061
-0.06
-0.06
-0.062
-0.071
-0.074
-0.056
-0.016
0.054
0.152
0.262
0.37
0.483
0.601
0.712
0.792
0.825
0.809
0.74
0.624
0.493
0.31
0.176
0.036
-0.09
-0.179
-0.179
-0.201
-0.19
-0.163
-0.14
-0.126
-0.119
-0.117
-0.116
-0.114
-0.112
-0.11
-0.108
-0.107
-0.105
-0.104
-0.102
-0.101
-0.1
-0.1
-0.097
-0.092
-0.082
-0.068
-0.053
-0.029
-0.011
0.007
0.025
0.042
0.052
0.071
0.091
0.111
0.129
0.145
0.158
0.169
0.176
0.182
0.187
0.189
0.191
0.193
0.192
0.189
0.187
0.182
0.177
0.172
0.165
0.157
0.145
0.13
0.112
0.093
0.071
0.049
0.03
0.012
-0.006
-0.022
-0.04
-0.057
-0.073
-0.09
-0.103
-0.114
-0.122
-0.125
-0.124
-0.123
-0.122
-0.121
-0.121
-0.12
-0.119
-0.118
-0.117
-0.116
-0.115
-0.114
-0.113
-0.112
-0.111
-0.11
-0.109
-0.109
-0.108
-0.107
-0.105
-0.103
-0.102
-0.099
-0.098
-0.097
-0.096
-0.096
-0.097
-0.097
-0.096
-0.095
-0.092
-0.09
-0.088
-0.088
-0.087
-0.087
-0.087
-0.087
-0.087
-0.086
-0.085
-0.085
-0.083
-0.082
-0.082
-0.081
-0.079
-0.086
-0.085
-0.084
-0.082
-0.077
-0.061
-0.05
-0.036
-0.018
-0
0.016
0.03
0.042
0.052
0.059
0.062
0.062
0.061
0.057
0.049
0.039
0.027
0.012
-0.005
-0.024
-0.039
-0.051
-0.061
-0.069
-0.073
-0.073
-0.074
-0.074
-0.072
-0.071
-0.071
-0.071
-0.071
-0.071
-0.07
-0.07
-0.069
-0.069
-0.069
-0.069
-0.069
-0.072
-0.08
-0.083
-0.065
-0.024
0.041
0.137
0.254
0.373
0.484
0.591
0.696
0.778
0.813
0.797
0.733
0.622
0.483
0.288
0.156
0.026
-0.092
-0.185
-0.188
-0.21
-0.2
-0.173
-0.15
-0.134
-0.126
-0.124
-0.123
-0.122
-0.12
-0.119
-0.119
-0.118
-0.117
-0.116
-0.115
-0.114
-0.113
-0.113
-0.112
-0.107
-0.098
-0.086
-0.069
-0.043
-0.024
-0.006
0.012
0.03
0.042
0.06
0.079
0.097
0.117
0.134
0.148
0.158
0.165
0.17
0.173
0.174
0.175
0.176
0.175
0.173
0.17
0.166
0.16
0.155
0.148
0.139
0.129
0.116
0.099
0.08
0.059
0.038
0.019
-0.002
-0.022
-0.04
-0.057
-0.074
-0.092
-0.11
-0.124
-0.133
-0.139
-0.142
-0.141
-0.14
-0.138
-0.137
-0.135
-0.134
-0.132
-0.131
-0.129
-0.129
-0.127
-0.126
-0.126
-0.125
-0.124
-0.123
-0.122
-0.121
-0.12
-0.118
-0.117
-0.115
-0.114
-0.113
-0.112
-0.111
-0.11
-0.109
-0.108
-0.106
-0.105
-0.106
-0.105
-0.103
-0.102
-0.102
-0.101
