-0.066
-0.065
-0.064
-0.062
-0.062
-0.061
-0.06
-0.059
-0.06
-0.059
-0.058
-0.057
-0.056
-0.056
-0.055
-0.055
-0.054
-0.053
-0.052
-0.05
-0.05
-0.051
-0.05
-0.049
-0.048
-0.047
-0.046
-0.046
-0.037
-0.027
-0.015
-0.002
0.011
0.016
0.018
0.017
0.013
0.008
0.001
-0.007
-0.018
-0.026
-0.033
-0.038
-0.041
-0.04
-0.04
-0.04
-0.04
-0.039
-0.039
-0.039
-0.043
-0.036
-0.017
0.015
0.057
0.115
0.209
0.278
0.235
0.185
0.127
0.022
-0.071
-0.058
-0.049
-0.044
-0.043
-0.042
-0.043
-0.042
-0.041
-0.036
-0.03
-0.022
-0.006
0.011
0.029
0.048
0.066
0.075
0.085
0.093
0.1
0.106
0.111
0.111
0.107
0.101
0.092
0.081
0.069
0.058
0.042
0.027
0.014
0.001
-0.012
-0.021
-0.031
-0.038
-0.044
-0.047
-0.048
-0.048
-0.049
-0.049
-0.049
-0.049
-0.049
-0.049
-0.05
-0.049
-0.049
-0.047
-0.046
-0.046
-0.045
-0.044
-0.044
-0.043
-0.043
-0.043
-0.043
-0.042
-0.041
-0.04
-0.038
-0.037
-0.037
-0.035
-0.035
-0.033
-0.031
-0.027
-0.017
-0.005
0.006
0.019
0.029
0.031
0.027
0.022
0.014
0.004
-0.007
-0.015
-0.024
-0.031
-0.036
-0.038
-0.04
-0.04
-0.04
-0.04
-0.041
-0.04
-0.039
-0.039
0.003
0.033
0.075
0.129
0.196
0.228
0.247
0.265
0.258
0.228
0.146
0.105
0.04
-0.012
-0.052
-0.049
-0.059
-0.058
-0.057
-0.057
-0.057
-0.057
-0.055
-0.055
-0.049
-0.046
-0.04
-0.032
-0.022
-0.017
0.004
0.021
0.037
0.054
0.073
0.076
0.083
0.089
0.091
0.093
0.095
0.092
0.083
0.076
0.066
0.056
0.045
0.038
0.017
-0
-0.019
-0.035
-0.05
-0.054
-0.06
-0.064
-0.067
-0.068
-0.068
-0.067
-0.067
-0.067
-0.066
-0.066
-0.066
-0.065
-0.064
-0.064
-0.063
-0.062
-0.062
-0.061
-0.06
-0.06
-0.058
-0.057
-0.057
-0.055
-0.055
-0.055
-0.054
-0.055
-0.055
-0.055
-0.053
-0.049
-0.043
-0.035
-0.026
-0.017
-0.006
0.003
0.01
0.014
0.016
0.013
0.001
-0.013
-0.025
-0.037
-0.047
-0.048
-0.048
-0.049
-0.049
-0.05
-0.05
-0.049
-0.048
-0.047
-0.046
-0.05
-0.054
-0.046
0.018
0.096
0.1
0.115
0.107
0.028
-0.063
-0.068
-0.079
-0.077
-0.063
-0.051
-0.044
-0.044
-0.044
-0.045
-0.031
-0.019
-0.005
0.011
0.028
0.033
0.048
0.063
0.077
0.091
0.101
0.104
0.104
0.103
0.103
0.102
0.098
0.095
0.082
0.067
0.053
0.037
0.02
0.011
-0.004
-0.019
-0.031
-0.041
-0.05
-0.05
-0.049
-0.049
-0.048
-0.047
-0.046
-0.045
-0.045
-0.047
-0.047
-0.046
-0.045
-0.044
-0.042
-0.042
-0.042
-0.04
-0.04
-0.04
-0.038
-0.038
-0.039
-0.038
-0.036
-0.036
-0.035
-0.035
-0.034
-0.033
-0.033
-0.031
-0.025
-0.019
-0.01
0.002
0.015
0.023
0.03
0.033
0.034
0.034
0.029
0.024
0.011
-0.002
-0.014
-0.022
-0.03
-0.031
-0.03
-0.03
-0.03
-0.028
-0.026
-0.026
-0.029
-0.033
-0.037
-0.03
-0.011
0.023
0.13
0.233
0.327
0.398
0.44
0.394
0.28
0.162
0.057
-0.026
-0.092
-0.082
-0.069
-0.057
-0.049
-0.044
-0.042
-0.042
-0.041
-0.04
-0.039
-0.038
-0.035
-0.031
-0.019
-0.004
0.012
0.029
0.046
0.055
0.068
0.08
0.09
0.099
0.106
0.108
0.106
0.103
0.099
0.096
0.091
0.086
0.071
0.054
0.036
0.019
0.002
-0.008
-0.02
-0.032
-0.041
-0.048
-0.053
-0.053
-0.051
-0.05
-0.049
-0.047
-0.047
-0.047
-0.047
-0.047
-0.047
-0.046
-0.046
-0.046
-0.046
-0.046
-0.046
-0.046
-0.046
-0.046
-0.045
-0.045
-0.044
-0.043
-0.043
-0.043
-0.044
-0.044
-0.045
-0.045
-0.044
-0.044
-0.034
-0.023
-0.011
0.003
0.016
0.02
0.021
0.018
0.013
0.007
-0.001
-0.009
-0.019
-0.029
-0.038
-0.044
-0.049
-0.049
-0.049
-0.047
-0.046
-0.045
-0.044
-0.044
-0.047
-0.039
-0.018
0.015
0.114
0.203
0.27
0.312
0.326
0.259
0.159
0.075
0.006
-0.045
-0.082
-0.071
-0.064
-0.061
-0.06
-0.059
-0.059
-0.058
-0.057
-0.056
-0.054
-0.048
-0.041
-0.034
-0.013
0.008
0.028
0.047
0.068
0.075
0.08
0.084
0.088
0.09
0.092
0.092
0.089
0.084
0.077
0.07
0.062
0.054
0.036
0.018
-0.001
-0.018
-0.034
-0.042
-0.051
-0.057
-0.063
-0.066
-0.067
-0.067
-0.066
-0.066
-0.065
-0.064
-0.063
-0.062
-0.059
-0.059
-0.059
-0.059
-0.058
-0.057
-0.057
-0.057
-0.057
-0.057
-0.057
-0.057
-0.056
-0.055
-0.056
-0.055
-0.04
-0.025
-0.008
0.008
0.023
0.022
0.016
0.008
-0
-0.009
-0.02
-0.028
-0.036
-0.041
-0.046
-0.048
-0.047
-0.047
-0.047
-0.046
-0.045
-0.045
-0.043
-0.043
-0.022
0.01
0.054
0.111
0.18
0.237
0.278
0.292
0.281
0.246
0.188
0.12
0.058
0.009
-0.029
-0.052
-0.061
-0.06
-0.059
-0.058
-0.057
-0.056
-0.055
-0.055
-0.049
-0.044
-0.037
-0.029
-0.017
-0.012
0.008
0.025
0.04
0.056
0.073
0.076
0.084
0.09
0.094
0.097
0.1
0.098
0.089
0.081
0.071
0.062
0.051
0.045
0.024
0.007
-0.011
-0.029
-0.045
-0.049
-0.055
-0.058
-0.06
-0.06
-0.057
-0.056
-0.054
-0.053
-0.052
-0.051
-0.049
-0.048
-0.047
-0.046
-0.047
-0.047
-0.046
-0.046
-0.046
-0.045
-0.045
-0.045
-0.044
-0.043
-0.044
-0.043
-0.041
-0.041
-0.041
-0.039
-0.036
-0.032
-0.025
-0.018
-0.009
0
0.01
0.019
0.026
0.03
0.03
0.027
0.014
-0.001
-0.014
-0.025
-0.035
-0.037
-0.036
-0.036
-0.036
-0.036
-0.035
-0.036
0.057
0.136
0.229
0.331
0.43
0.418
0.358
0.27
0.159
0.043
-0.057
-0.085
-0.093
-0.088
-0.074
-0.063
-0.056
-0.056
-0.057
-0.056
-0.046
-0.034
-0.02
-0.005
0.012
0.022
0.038
0.053
0.068
0.081
0.092
0.093
0.093
0.091
0.09
0.088
0.085
0.081
0.068
0.052
0.036
0.02
0.002
-0.007
-0.022
-0.037
-0.049
-0.06
-0.069
-0.069
-0.069
-0.069
-0.069
-0.068
-0.068
-0.067
-0.066
-0.066
-0.065
-0.064
-0.064
-0.062
-0.061
-0.06
-0.059
-0.058
-0.059
-0.058
-0.059
-0.06
-0.06
-0.06
-0.06
-0.059
-0.057
-0.057
-0.055
-0.055
-0.056
-0.056
-0.051
-0.045
-0.035
-0.023
-0.011
-0.003
0.003
0.007
0.008
0.007
0.003
-0.004
-0.016
-0.027
-0.037
-0.044
-0.051
-0.052
-0.052
-0.052
-0.053
-0.051
-0.051
-0.051
-0.053
-0.058
-0.06
-0.049
-0.027
0.006
0.112
0.214
0.303
0.37
0.41
0.365
0.25
0.133
0.03
-0.052
-0.117
-0.107
-0.093
-0.082
-0.074
-0.069
-0.068
-0.068
-0.067
-0.067
-0.066
-0.063
-0.06
-0.056
-0.038
-0.022
-0.005
0.013
0.03
0.035
0.051
0.063
0.073
0.083
0.09
0.089
0.087
0.083
0.079
0.077
0.072
0.067
0.052
0.035
0.017
-0.001
-0.018
-0.026
-0.039
-0.049
-0.058
-0.065
-0.069
-0.068
-0.067
-0.066
-0.065
-0.064
-0.064
-0.063
-0.062
-0.062
-0.062
-0.06
-0.059
-0.058
-0.057
-0.056
-0.055
-0.055
-0.054
-0.054
-0.053
-0.052
-0.052
-0.05
-0.049
-0.05
-0.049
-0.049
-0.048
-0.047
-0.046
-0.045
-0.036
-0.026
-0.015
-0
0.014
0.02
0.021
0.02
0.015
0.009
0.001
-0.007
-0.017
-0.025
-0.033
-0.038
-0.04
-0.039
-0.039
-0.038
-0.038
-0.037
-0.037
-0.036
0.061
0.146
0.219
0.279
0.327
0.259
0.168
0.087
0.024
-0.024
-0.056
-0.053
-0.046
-0.045
-0.045
-0.044
-0.042
-0.036
-0.029
-0.022
-0.006
0.011
0.027
0.045
0.064
0.073
0.084
0.092
0.097
0.102
0.107
0.106
0.103
0.099
0.091
0.085
0.077
0.069
0.052
0.035
0.016
-0.002
-0.018
-0.027
-0.036
-0.042
-0.047
-0.05
-0.05
-0.05
-0.05
-0.049
-0.049
-0.049
-0.048
-0.047
-0.048
-0.048
-0.048
-0.048
-0.047
-0.046
-0.044
-0.043
-0.043
-0.042
-0.041
-0.04
-0.041
-0.041
-0.042
-0.042
-0.041
-0.041
-0.042
-0.041
-0.041
-0.04
-0.037
-0.032
-0.019
-0.006
0.006
0.018
0.029
0.031
0.027
0.021
0.011
-0.001
-0.013
-0.022
-0.03
-0.035
-0.039
-0.04
-0.04
-0.039
-0.038
-0.037
-0.037
-0.037
-0.035
-0.036
-0.014
0.019
0.064
0.121
0.192
0.249
0.286
0.297
0.282
0.242
0.179
0.111
0.05
0.002
-0.034
-0.055
-0.062
-0.061
-0.06
-0.06
-0.059
-0.058
-0.057
-0.057
-0.054
-0.051
-0.045
-0.038
-0.027
-0.018
-0
0.016
0.032
0.048
0.065
0.071
0.078
0.083
0.085
0.086
0.088
0.087
0.077
0.07
0.061
0.05
0.038
0.031
0.01
-0.007
-0.025
-0.043
-0.058
-0.062
-0.067
-0.07
-0.072
-0.072
-0.07
-0.07
-0.069
-0.067
-0.066
-0.065
-0.065
-0.064
-0.063
-0.063
-0.063
-0.063
-0.062
-0.063
-0.062
-0.062
-0.061
-0.061
-0.061
-0.061
-0.06
-0.06
-0.057
-0.056
-0.053
-0.049
-0.042
-0.037
-0.024
-0.012
-0.002
0.005
0.011
0.01
-0.001
-0.013
-0.026
-0.038
-0.05
-0.051
-0.052
-0.052
-0.054
-0.054
-0.055
-0.059
-0.06
-0.046
0.022
0.105
0.205
0.309
0.393
0.405
0.34
0.248
0.141
0.042
-0.044
-0.063
-0.07
-0.069
-0.069
-0.068
-0.067
-0.065
-0.065
-0.063
-0.053
-0.042
-0.028
-0.013
0.003
0.013
0.029
0.043
0.058
0.072
0.083
0.084
0.085
0.085
0.084
0.084
0.083
0.079
0.067
0.052
0.036
0.021
0.003
-0.006
-0.021
-0.035
-0.047
-0.056
-0.064
-0.064
-0.063
-0.063
-0.063
-0.062
-0.061
-0.06
-0.059
-0.059
-0.058
-0.057
-0.056
-0.056
-0.054
-0.054
-0.053
-0.052
-0.051
-0.051
-0.051
-0.05
-0.051
-0.05
-0.049
-0.049
-0.049
-0.048
-0.047
-0.045
-0.044
-0.043
-0.036
-0.029
-0.019
-0.006
0.006
0.014
0.02
0.022
0.023
0.022
0.018
0.012
-0
-0.013
-0.024
-0.032
-0.038
-0.037
-0.036
-0.036
-0.036
-0.035
-0.035
-0.034
-0.037
-0.042
-0.043
-0.031
-0.008
0.029
0.133
0.234
0.32
0.383
0.42
0.374
0.26
0.145
0.045
-0.034
-0.095
-0.084
-0.07
-0.06
-0.053
-0.049
-0.048
-0.048
-0.048
-0.047
-0.047
-0.045
-0.042
-0.038
-0.021
-0.006
0.01
0.028
0.045
0.05
0.065
0.077
0.086
0.096
0.103
0.102
0.1
0.098
0.094
0.091
0.086
0.08
0.061
0.043
0.024
0.008
-0.009
-0.015
-0.027
-0.038
-0.047
-0.053
-0.057
-0.057
-0.057
-0.057
-0.059
-0.06
-0.059
-0.059
-0.059
-0.057
-0.056
-0.055
-0.054
-0.053
-0.053
-0.053
-0.054
-0.054
-0.053
-0.053
-0.052
-0.05
-0.049
-0.048
-0.048
-0.048
-0.049
-0.05
-0.05
-0.05
-0.047
-0.045
-0.036
-0.024
-0.013
-0.001
0.012
0.017
0.017
0.015
0.009
0.002
-0.006
-0.015
-0.026
-0.035
-0.042
-0.047
-0.05
-0.049
-0.049
-0.047
-0.047
-0.046
-0.047
-0.035
-0.012
0.024
0.073
0.131
0.216
0.275
0.307
0.315
0.3
0.23
0.133
0.055
-0.009
-0.057
-0.088
-0.077
-0.071
-0.068
-0.066
-0.065
-0.064
-0.064
-0.064
-0.062
-0.06
-0.055
-0.046
-0.037
-0.022
-0.006
0.011
0.027
0.045
0.055
0.064
0.072
0.078
0.083
0.088
0.088
0.085
0.081
0.074
0.065
0.057
0.049
0.031
0.014
-0.004
-0.021
-0.038
-0.047
-0.056
-0.063
-0.068
-0.071
-0.07
-0.069
-0.069
-0.068
-0.068
-0.068
-0.066
-0.066
-0.067
-0.066
-0.066
-0.066
-0.064
-0.063
-0.062
-0.062
-0.062
-0.062
-0.06
-0.06
-0.059
-0.059
-0.059
-0.06
-0.058
-0.058
-0.058
-0.057
-0.056
-0.055
-0.051
-0.045
-0.032
-0.018
-0.006
0.005
0.015
0.016
0.009
-0.001
-0.013
-0.028
-0.04
-0.043
-0.046
-0.046
-0.045
-0.045
-0.045
-0.044
-0.045
-0.045
-0.044
-0.043
-0.043
-0.043
-0.019
0.015
0.062
0.122
0.196
0.255
0.29
0.298
0.279
0.234
0.166
0.097
0.037
-0.008
-0.04
-0.059
-0.063
-0.06
-0.059
-0.059
-0.058
-0.058
-0.057
-0.057
-0.052
-0.047
-0.039
-0.03
-0.018
-0.008
0.009
0.025
0.041
0.058
0.075
0.082
0.09
0.095
0.098
0.098
0.1
0.098
0.094
0.086
0.076
0.064
0.052
0.04
0.024
0.007
-0.009
-0.026
-0.04
-0.046
-0.051
-0.053
-0.054
-0.055
-0.054
-0.053
-0.053
-0.052
-0.052
-0.052
-0.05
-0.049
-0.048
-0.047
-0.046
-0.046
-0.045
-0.045
-0.044
-0.045
-0.045
-0.045
-0.044
-0.044
-0.043
-0.042
-0.042
-0.042
-0.041
-0.04
-0.037
-0.035
-0.032
-0.028
-0.02
-0.015
-0.002
0.009
0.018
0.025
0.031
0.03
0.018
0.007
-0.005
-0.018
-0.029
-0.029
-0.031
-0.032
-0.033
-0.035
-0.035
-0.035
-0.034
-0.034
-0.033
-0.032
-0.034
-0.038
0.011
0.07
0.139
0.223
0.219
0.172
0.102
0.017
-0.078
-0.075
-0.079
-0.07
-0.057
-0.047
-0.042
-0.041
-0.04
-0.04
-0.039
-0.038
-0.038
-0.037
-0.028
-0.018
-0.004
0.012
0.029
0.04
0.056
0.069
0.083
0.095
0.105
0.106
0.106
0.104
0.103
0.102
0.098
0.095
0.082
0.066
0.049
0.033
0.016
0.008
-0.008
-0.023
-0.035
-0.045
-0.053
-0.052
-0.052
-0.052
-0.052
-0.052
-0.052
-0.051
-0.051
-0.052
-0.053
-0.052
-0.053
-0.053
-0.052
-0.052
-0.051
-0.051
-0.05
-0.05
-0.051
-0.051
-0.05
-0.049
-0.049
-0.049
-0.048
-0.048
-0.048
-0.047
-0.047
-0.046
-0.04
-0.033
-0.024
-0.012
0.001
0.007
0.012
0.015
0.016
0.015
0.011
0.005
-0.008
-0.02
-0.031
-0.039
-0.046
-0.046
-0.047
-0.048
-0.048
-0.047
-0.047
-0.046
-0.048
-0.053
-0.051
-0.036
-0.01
0.029
0.126
0.224
0.305
0.363
0.396
0.355
0.24
0.128
0.031
-0.048
-0.108
-0.097
-0.084
-0.074
-0.068
-0.065
-0.064
-0.063
-0.062
-0.061
-0.06
-0.057
-0.054
-0.05
-0.031
-0.016
0
0.02
0.038
0.043
0.057
0.068
0.076
0.085
0.094
0.094
0.092
0.089
0.085
0.08
0.073
0.067
0.048
0.031
0.013
-0.002
-0.017
-0.024
-0.036
-0.046
-0.056
-0.062
-0.066
-0.065
-0.064
-0.063
-0.062
-0.06
-0.058
-0.058
-0.058
-0.057
-0.058
-0.057
-0.056
-0.056
-0.055
-0.054
-0.053
-0.051
-0.05
-0.05
-0.051
-0.05
-0.051
-0.049
-0.048
-0.048
-0.048
-0.047
-0.048
-0.048
-0.047
-0.047
-0.037
-0.025
-0.012
0.002
0.017
0.022
0.023
0.02
0.015
0.007
-0.002
-0.011
-0.02
-0.027
-0.033
-0.038
-0.039
-0.038
-0.038
-0.038
-0.038
-0.038
-0.037
-0.035
-0.033
-0.019
0.006
0.043
0.094
0.153
0.234
0.288
0.316
0.319
0.302
0.233
0.14
0.066
0.006
-0.039
-0.069
-0.059
-0.054
-0.052
-0.052
-0.051
-0.048
-0.047
-0.047
-0.045
-0.042
-0.037
-0.028
-0.019
-0.003
0.014
0.03
0.045
0.063
0.072
0.082
0.09
0.097
0.101
0.106
0.106
0.104
0.099
0.092
0.083
0.074
0.064
0.046
0.028
0.01
-0.007
-0.022
-0.03
-0.038
-0.045
-0.05
-0.054
-0.054
-0.054
-0.053
-0.052
-0.051
-0.052
-0.05
-0.05
-0.048
-0.046
-0.046
-0.045
-0.042
-0.041
-0.04
-0.041
-0.042
-0.042
-0.041
-0.042
-0.041
-0.041
-0.041
-0.043
-0.042
-0.042
-0.041
-0.041
-0.04
-0.04
-0.035
-0.03
-0.016
-0.004
0.009
0.019
0.029
0.029
0.025
0.019
0.009
-0.002
-0.013
-0.021
-0.027
-0.033
-0.037
-0.041
-0.041
-0.041
-0.039
-0.038
-0.038
-0.038
-0.037
-0.039
-0.012
0.025
0.073
0.132
0.207
0.265
0.296
0.3
0.277
0.228
0.157
0.087
0.03
-0.013
-0.043
-0.061
-0.063
-0.062
-0.062
-0.062
-0.062
-0.062
-0.06
-0.059
-0.055
-0.05
-0.043
-0.034
-0.022
-0.013
0.004
0.021
0.036
0.051
0.068
0.074
0.081
0.086
0.088
0.089
0.09
0.089
0.084
0.075
0.064
0.05
0.036
0.024
0.008
-0.008
-0.024
-0.041
-0.057
-0.064
-0.067
-0.07
-0.07
-0.069
-0.068
-0.068
-0.068
-0.068
-0.067
-0.068
-0.067
-0.066
-0.064
-0.064
-0.063
-0.063
-0.062
-0.061
-0.06
-0.059
-0.059
-0.059
-0.059
-0.058
-0.058
-0.058
-0.058
-0.058
-0.057
-0.056
-0.052
-0.05
-0.046
-0.041
-0.034
-0.027
-0.013
-0.002
0.006
0.012
0.004
-0.008
-0.021
-0.035
-0.047
-0.045
-0.048
-0.05
-0.05
-0.051
-0.052
-0.052
-0.05
-0.05
0.022
0.083
0.182
0.266
0.365
0.396
0.348
0.275
0.203
0.104
-0.015
-0.042
-0.072
-0.088
-0.09
-0.079
-0.065
-0.063
-0.062
-0.061
-0.061
-0.061
-0.06
-0.059
-0.047
-0.034
-0.019
-0.003
0.014
0.024
0.039
0.052
0.065
0.078
0.088
0.09
0.09
0.089
0.088
0.087
0.084
0.081
0.068
0.052
0.035
0.019
0.003
-0.004
-0.019
-0.033
-0.045
-0.055
-0.064
-0.063
-0.062
-0.061
-0.06
-0.058
-0.057
-0.056
-0.057
-0.056
-0.057
-0.055
-0.053
-0.052
-0.053
-0.053
-0.053
-0.052
-0.052
-0.05
-0.049
-0.049
-0.048
-0.047
-0.046
-0.045
-0.044
-0.043
-0.043
-0.043
-0.042
-0.041
-0.034
-0.025
-0.015
-0.001
0.012
0.018
0.023
0.024
0.023
0.021
0.016
0.01
-0.002
-0.013
-0.023
-0.03
-0.035
-0.034
-0.035
-0.034
-0.034
-0.034
-0.033
-0.033
-0.036
-0.041
-0.037
-0.021
0.008
0.049
0.15
0.247
0.322
0.376
0.406
0.359
0.244
0.135
0.04
-0.035
-0.09
-0.077
-0.064
-0.055
-0.051
-0.05
-0.05
-0.05
-0.05
-0.05
-0.05
-0.047
-0.043
-0.037
-0.024
-0.009
0.007
0.024
0.042
0.052
0.067
0.077
0.085
0.094
0.102
0.101
0.1
0.097
0.093
0.089
0.084
0.078
0.061
0.043
0.024
0.006
-0.011
-0.019
-0.03
-0.04
-0.048
-0.054
-0.057
-0.057
-0.056
-0.056
-0.056
-0.054
-0.052
-0.053
-0.052
-0.052
-0.053
-0.052
-0.051
-0.05
-0.05
-0.051
-0.052
-0.052
-0.051
-0.05
-0.05
-0.05
-0.051
-0.05
-0.049
-0.049
-0.049
-0.048
-0.049
-0.049
-0.047
-0.046
-0.035
-0.023
-0.013
-0.004
0.004
-0
-0.007
-0.016
-0.027
-0.036
-0.043
-0.047
-0.048
-0.048
-0.047
-0.047
-0.048
-0.049
-0.046
-0.03
-0.002
0.039
0.091
0.151
0.228
0.278
0.302
0.301
0.278
0.209
0.12
0.047
-0.011
-0.055
-0.083
-0.075
-0.069
-0.067
-0.067
-0.067
-0.064
-0.064
-0.064
-0.062
-0.059
-0.054
-0.046
-0.036
-0.02
-0.003
0.013
0.03
0.048
0.059
0.069
0.076
0.082
0.085
0.088
0.088
0.085
0.08
0.073
0.063
0.055
0.045
0.028
0.011
-0.006
-0.023
-0.04
-0.049
-0.057
-0.064
-0.069
-0.072
-0.071
-0.07
-0.069
-0.069
-0.068
-0.068
-0.066
-0.066
-0.064
-0.064
-0.065
-0.066
-0.065
-0.065
-0.064
-0.063
-0.063
-0.064
-0.062
-0.062
-0.061
-0.06
-0.059
-0.058
-0.052
-0.046
-0.032
-0.018
-0.005
0.006
0.016
0.017
0.012
0.005
-0.005
-0.016
-0.027
-0.034
-0.04
-0.045
-0.049
-0.052
-0.052
-0.051
-0.049
-0.048
-0.046
-0.046
-0.045
-0.046
-0.015
0.025
0.075
0.136
0.212
0.27
0.297
0.297
0.272
0.22
0.143
0.074
0.019
-0.021
-0.049
-0.063
-0.062
-0.06
-0.059
-0.058
-0.058
-0.058
-0.057
-0.055
-0.051
-0.045
-0.037
-0.028
-0.017
-0.007
0.012
0.029
0.045
0.061
0.078
0.084
0.092
0.096
0.098
0.098
0.098
0.096
0.091
0.084
0.074
0.062
0.049
0.038
0.022
0.005
-0.012
-0.029
-0.044
-0.05
-0.054
-0.057
-0.058
-0.058
-0.058
-0.058
-0.055
-0.054
-0.053
-0.052
-0.051
-0.051
-0.049
-0.048
-0.049
-0.049
-0.048
-0.048
-0.046
-0.046
-0.046
-0.046
-0.046
-0.046
-0.044
-0.044
-0.044
-0.044
-0.044
-0.043
-0.041
-0.039
-0.025
-0.012
0
0.014
0.027
0.027
0.016
0.005
-0.007
-0.019
-0.032
-0.031
-0.034
-0.035
-0.037
-0.038
-0.039
-0.037
-0.037
-0.037
-0.038
-0.039
-0.043
-0.046
0.029
0.093
0.168
0.257
0.36
0.389
0.336
0.285
0.209
0.106
-0.015
-0.04
-0.068
-0.081
-0.08
-0.068
-0.056
-0.055
-0.055
-0.055
-0.055
-0.055
-0.055
-0.054
-0.043
-0.032
-0.021
-0.009
0.005
0.012
0.03
0.047
0.062
0.076
0.088
0.09
0.091
0.092
0.092
0.092
0.09
0.086
0.072
0.056
0.039
0.021
0.004
-0.005
-0.021
-0.034
-0.046
-0.055
-0.062
-0.062
-0.063
-0.062
-0.062
-0.062
-0.06
-0.059
-0.059
-0.059
-0.06
-0.059
-0.058
-0.057
-0.058
-0.058
-0.058
-0.057
-0.056
-0.055
-0.055
-0.056
-0.056
-0.055
-0.054
-0.053
-0.054
-0.055
-0.056
-0.055
-0.054
-0.053
-0.047
-0.039
-0.03
-0.018
-0.004
0.003
0.008
0.009
0.008
0.005
0
-0.006
-0.017
-0.029
-0.039
-0.046
-0.052
-0.051
-0.051
-0.051
-0.051
-0.05
-0.048
-0.048
-0.052
-0.056
-0.051
-0.033
-0.003
0.042
0.144
0.238
0.31
0.359
0.384
0.334
0.219
0.113
0.023
-0.049
-0.103
-0.09
-0.078
-0.07
-0.066
-0.064
-0.063
-0.062
-0.061
-0.061
-0.061
-0.059
-0.054
-0.049
-0.034
-0.018
-0.002
0.016
0.035
0.046
0.06
0.072
0.08
0.087
0.094
0.094
0.093
0.089
0.084
0.079
0.074
0.067
0.052
0.035
0.016
-0.002
-0.018
-0.027
-0.039
-0.049
-0.057
-0.062
-0.065
-0.063
-0.062
-0.062
-0.063
-0.064
-0.063
-0.062
-0.062
-0.061
-0.06
-0.06
-0.058
-0.056
-0.055
-0.054
-0.054
-0.053
-0.052
-0.052
-0.051
-0.05
-0.051
-0.05
-0.049
-0.049
-0.049
-0.048
-0.038
-0.027
-0.012
0.002
0.019
0.022
0.019
0.015
0.009
0.001
-0.007
-0.012
-0.02
-0.028
-0.035
-0.039
-0.041
-0.04
-0.039
-0.039
-0.039
-0.038
-0.036
-0.035
-0.006
0.011
0.038
0.079
0.134
0.169
0.245
0.293
0.313
0.308
0.281
0.211
0.123
0.053
-0.001
-0.043
-0.068
-0.058
-0.052
-0.051
-0.051
-0.052
-0.051
-0.051
-0.05
-0.048
-0.043
-0.037
-0.028
-0.018
-0.001
0.016
0.032
0.047
0.066
0.075
0.085
0.092
0.097
0.1
0.103
0.102
0.101
0.097
0.089
0.079
0.07
0.06
0.043
0.026
0.009
-0.01
-0.027
-0.036
-0.042
-0.047
-0.052
-0.055
-0.053
-0.053
-0.051
-0.05
-0.049
-0.05
-0.049
-0.049
-0.047
-0.046
-0.046
-0.048
-0.047
-0.046
-0.044
-0.043
-0.044
-0.045
-0.043
-0.043
-0.041
-0.04
-0.04
-0.042
-0.041
-0.04
-0.038
-0.038
-0.038
-0.038
-0.033
-0.027
-0.012
0.002
0.012
0.02
0.028
0.027
0.023
0.016
0.007
-0.006
-0.019
-0.026
-0.03
-0.034
-0.037
-0.039
-0.039
-0.039
-0.038
-0.038
-0.038
-0.04
-0.041
-0.041
-0.009
0.034
0.086
0.15
0.229
0.287
0.312
0.309
0.279
0.221
0.139
0.069
0.015
-0.023
-0.05
-0.063
-0.062
-0.061
-0.061
-0.061
-0.06
-0.059
-0.059
-0.058
-0.052
-0.046
-0.041
-0.032
-0.02
-0.011
0.007
0.025
0.042
0.057
0.073
0.078
0.085
0.09
0.091
0.09
0.089
0.087
0.082
0.073
0.064
0.051
0.037
0.026
0.01
-0.007
-0.025
-0.042
-0.059
-0.064
-0.066
-0.067
-0.067
-0.067
-0.067
-0.068
-0.066
-0.065
-0.065
-0.065
-0.064
-0.064
-0.064
-0.064
-0.064
-0.065
-0.065
-0.064
-0.062
-0.061
-0.06
-0.06
-0.059
-0.058
-0.057
-0.056
-0.054
-0.049
-0.043
-0.035
-0.025
-0.016
-0.006
0.002
0.005
0.007
0.009
0.007
-0.002
-0.012
-0.025
-0.038
-0.052
-0.057
-0.058
-0.058
-0.057
-0.056
-0.057
-0.058
-0.061
-0.064
-0.007
0.06
0.137
0.228
0.331
0.377
0.319
0.265
0.186
0.081
-0.038
-0.059
-0.084
-0.094
-0.092
-0.078
-0.065
-0.064
-0.065
-0.065
-0.065
-0.065
-0.065
-0.063
-0.052
-0.041
-0.031
-0.018
-0.005
0.002
0.021
0.039
0.054
0.069
0.082
0.085
0.085
0.088
0.088
0.087
0.085
0.084
0.068
0.057
0.043
0.028
0.011
0.007
-0.012
-0.026
-0.041
-0.053
-0.065
-0.064
-0.065
-0.063
-0.062
-0.06
-0.06
-0.057
-0.057
-0.056
-0.055
-0.054
-0.055
-0.055
-0.054
-0.053
-0.053
-0.051
-0.05
-0.05
-0.05
-0.05
-0.049
-0.048
-0.047
-0.047
-0.046
-0.045
-0.044
-0.043
-0.036
-0.027
-0.017
-0.005
0.009
0.017
0.021
0.023
0.022
0.017
0.012
0.005
-0.007
-0.017
-0.026
-0.034
-0.038
-0.038
-0.039
-0.039
-0.038
-0.037
-0.035
-0.033
-0.038
-0.041
-0.035
-0.015
0.018
0.067
0.17
0.26
0.327
0.369
0.389
0.335
0.22
0.118
0.032
-0.038
-0.089
-0.075
-0.063
-0.055
-0.05
-0.049
-0.047
-0.043
-0.037
-0.032
-0.018
-0.003
0.012
0.03
0.049
0.06
0.073
0.083
0.09
0.096
0.102
0.102
0.101
0.096
0.091
0.084
0.078
0.071
0.055
0.037
0.02
0.002
-0.015
-0.023
-0.035
-0.045
-0.053
-0.06
-0.062
-0.059
-0.058
-0.058
-0.057
-0.057
-0.057
-0.057
-0.057
-0.057
-0.056
-0.055
-0.052
-0.051
-0.051
-0.053
-0.053
-0.054
-0.052
-0.052
-0.051
-0.052
-0.052
-0.054
-0.053
-0.052
-0.051
-0.049
-0.037
-0.027
-0.016
-0.003
0.01
0.013
0.013
0.009
0.003
-0.006
-0.016
-0.025
-0.033
-0.041
-0.046
-0.051
-0.052
-0.052
-0.052
-0.052
-0.053
-0.053
-0.052
-0.052
-0.021
-0.002
0.029
0.071
0.127
0.162
0.204
0.247
0.263
0.255
0.223
0.183
0.105
0.038
-0.014
-0.052
-0.076
-0.075
-0.07
-0.07
-0.07
-0.069
-0.068
-0.067
-0.063
-0.061
-0.057
-0.051
-0.043
-0.037
-0.019
-0.002
0.014
0.03
0.049
0.057
0.068
0.075
0.08
0.083
0.086
0.085
0.083
0.077
0.069
0.059
0.048
0.038
0.022
0.005
-0.012
-0.03
-0.046
-0.055
-0.061
-0.065
-0.068
-0.07
-0.069
-0.07
-0.069
-0.07
-0.07
-0.07
-0.069
-0.068
-0.067
-0.067
-0.067
-0.068
-0.067
-0.066
-0.064
-0.063
-0.061
-0.061
-0.06
-0.059
-0.057
-0.057
-0.056
-0.057
-0.056
-0.056
-0.055
-0.055
-0.054
-0.052
-0.047
-0.041
-0.027
-0.014
-0.002
0.009
0.018
0.019
0.014
0.006
-0.004
-0.016
-0.029
-0.036
-0.041
-0.045
-0.047
-0.048
-0.048
-0.048
-0.046
-0.046
-0.045
-0.045
-0.046
-0.047
-0.014
0.029
0.083
0.148
0.228
0.287
0.307
0.301
0.269
0.21
0.125
0.055
0.005
-0.031
-0.055
-0.065
-0.059
-0.059
-0.057
-0.056
-0.056
-0.055
-0.054
-0.054
-0.047
-0.04
-0.032
-0.022
-0.01
-0.001
0.019
0.037
0.054
0.069
0.085
0.09
0.097
0.101
0.103
0.103
0.103
0.099
0.093
0.086
0.074
0.061
0.046
0.036
0.019
0.003
-0.013
-0.03
-0.045
-0.051
-0.053
-0.054
-0.054
-0.054
-0.053
-0.053
-0.051
-0.049
-0.048
-0.047
-0.046
-0.045
-0.045
-0.045
-0.045
-0.046
-0.045
-0.044
-0.043
-0.042
-0.041
-0.042
-0.044
-0.045
-0.044
-0.044
-0.042
-0.039
-0.035
-0.03
-0.023
-0.014
0.001
0.014
0.022
0.028
0.031
0.028
0.018
0.007
-0.007
-0.02
-0.031
-0.035
-0.036
-0.035
-0.036
-0.036
-0.036
-0.036
-0.034
-0.032
-0.032
-0.034
-0.04
-0.043
0.013
0.082
0.162
0.255
0.357
0.399
0.364
0.306
0.223
0.113
-0.006
-0.055
-0.077
-0.086
-0.081
-0.069
-0.058
-0.057
-0.057
-0.055
-0.054
-0.053
-0.053
-0.052
-0.044
-0.033
-0.022
-0.01
0.003
0.012
0.03
0.049
0.063
0.077
0.088
0.09
0.09
0.093
0.093
0.092
0.089
0.087
0.07
0.059
0.045
0.029
0.011
0.006
-0.014
-0.029
-0.043
-0.055
-0.067
-0.065
-0.066
-0.065
-0.064
-0.064
-0.065
-0.063
-0.064
-0.063
-0.063
-0.063
-0.064
-0.062
-0.063
-0.061
-0.06
-0.06
-0.059
-0.058
-0.059
-0.059
-0.059
-0.059
-0.059
-0.058
-0.057
-0.056
-0.057
-0.057
-0.056
-0.055
-0.049
-0.039
-0.027
-0.015
-0.001
0.005
0.008
0.008
0.005
-0.001
-0.006
-0.013
-0.024
-0.035
-0.044
-0.051
-0.055
-0.055
-0.054
-0.053
-0.052
-0.051
-0.049
-0.049
-0.054
-0.055
-0.045
-0.023
0.014
0.066
0.169
0.254
0.313
0.348
0.361
0.301
0.189
0.093
0.013
-0.052
-0.099
-0.085
-0.075
-0.07
-0.068
-0.067
-0.065
-0.063
-0.062
-0.062
-0.061
-0.058
-0.053
-0.047
-0.031
-0.015
0.001
0.017
0.036
0.046
0.059
0.069
0.076
0.082
0.089
0.091
0.09
0.087
0.083
0.076
0.069
0.061
0.045
0.026
0.008
-0.011
-0.027
-0.035
-0.043
-0.053
-0.06
-0.067
-0.07
-0.07
-0.068
-0.067
-0.066
-0.065
-0.063
-0.062
-0.061
-0.06
-0.059
-0.059
-0.058
-0.058
-0.056
-0.056
-0.055
-0.055
-0.054
-0.053
-0.052
-0.051
-0.05
-0.05
-0.049
-0.049
-0.048
-0.047
-0.047
-0.047
-0.046
-0.043
-0.032
-0.019
-0.005
0.007
0.013
0.011
0.008
0.001
-0.007
-0.012
-0.02
-0.027
-0.033
-0.037
-0.039
-0.038
-0.037
-0.037
-0.036
-0.037
-0.037
-0.037
-0.004
0.016
0.049
0.093
0.15
0.185
0.223
0.263
0.276
0.264
0.228
0.189
0.113
0.049
-0
-0.036
-0.058
-0.056
-0.053
-0.052
-0.053
-0.053
-0.052
-0.051
-0.027
-0.004
0.02
0.045
0.073
0.079
0.087
0.095
0.099
0.101
0.101
0.102
0.093
0.089
0.082
0.073
0.061
0.056
0.034
0.018
0.001
-0.016
-0.032
-0.037
-0.043
-0.048
-0.051
-0.053
-0.052
-0.052
-0.05
-0.05
-0.049
-0.05
-0.05
-0.051
-0.05
-0.049
-0.049
-0.049
-0.049
-0.049
-0.048
-0.047
-0.047
-0.046
-0.045
-0.045
-0.044
-0.044
-0.044
-0.044
-0.044
-0.044
-0.029
-0.015
-0.002
0.011
0.024
0.023
0.017
0.009
-0.002
-0.014
-0.028
-0.034
-0.039
-0.041
-0.042
-0.043
-0.044
-0.044
-0.043
-0.043
-0.043
-0.043
-0.044
-0.045
-0.012
0.034
0.09
0.157
0.238
0.295
0.31
0.3
0.264
0.2
0.111
0.042
-0.008
-0.042
-0.062
-0.07
-0.063
-0.062
-0.062
-0.061
-0.061
-0.061
-0.062
-0.061
-0.056
-0.049
-0.041
-0.031
-0.02
-0.011
0.007
0.024
0.04
0.055
0.07
0.074
0.079
0.084
0.087
0.087
0.085
0.083
0.076
0.067
0.057
0.044
0.029
0.018
0.001
-0.015
-0.031
-0.047
-0.062
-0.068
-0.071
-0.072
-0.072
-0.071
-0.071
-0.07
-0.068
-0.066
-0.065
-0.064
-0.065
-0.065
-0.065
-0.064
-0.063
-0.062
-0.062
-0.061
-0.061
-0.06
-0.059
-0.058
-0.059
-0.059
-0.059
-0.058
-0.057
-0.057
-0.056
-0.056
-0.055
-0.052
-0.048
-0.043
-0.028
-0.014
-0.003
0.007
0.015
0.013
0.002
-0.009
-0.022
-0.034
-0.046
-0.05
-0.051
-0.05
-0.048
-0.047
-0.046
-0.047
-0.047
-0.048
-0.049
-0.051
-0.056
-0.057
0.001
0.072
0.154
0.25
0.352
0.391
0.352
0.29
0.203
0.092
-0.023
-0.068
-0.089
-0.095
-0.088
-0.074
-0.064
-0.063
-0.063
-0.061
-0.06
-0.06
-0.06
-0.06
-0.05
-0.037
-0.025
-0.012
0.003
0.01
0.027
0.045
0.061
0.075
0.086
0.088
0.088
0.088
0.088
0.087
0.086
0.081
0.067
0.057
0.042
0.026
0.012
0.007
-0.012
-0.027
-0.041
-0.053
-0.063
-0.062
-0.062
-0.061
-0.06
-0.06
-0.059
-0.058
-0.057
-0.055
-0.053
-0.052
-0.051
-0.051
-0.051
-0.051
-0.05
-0.05
-0.05
-0.048
-0.047
-0.046
-0.045
-0.044
-0.043
-0.043
-0.043
-0.041
-0.041
-0.042
-0.042
-0.041
-0.034
-0.026
-0.017
-0.009
0.002
0.008
0.014
0.021
0.026
0.027
0.024
0.02
0.006
-0.006
-0.017
-0.028
-0.037
-0.037
-0.038
-0.036
-0.034
-0.033
-0.032
-0.032
-0.038
-0.039
-0.027
-0.004
0.032
0.084
0.189
0.275
0.334
0.368
0.38
0.319
0.205
0.109
0.027
-0.038
-0.086
-0.072
-0.06
-0.054
-0.05
-0.05
-0.049
-0.046
-0.039
-0.033
-0.016
-0
0.016
0.032
0.05
0.06
0.073
0.083
0.091
0.096
0.101
0.101
0.1
0.096
0.091
0.084
0.077
0.071
0.055
0.038
0.02
0.001
-0.017
-0.026
-0.036
-0.045
-0.053
-0.059
-0.062
-0.061
-0.059
-0.058
-0.057
-0.057
-0.056
-0.056
-0.054
-0.054
-0.055
-0.056
-0.056
-0.056
-0.055
-0.053
-0.053
-0.053
-0.053
-0.054
-0.054
-0.054
-0.052
-0.052
-0.051
-0.051
-0.04
-0.029
-0.016
-0.004
0.01
0.013
0.012
0.008
0.002
-0.008
-0.018
-0.026
-0.033
-0.039
-0.044
-0.048
-0.05
-0.051
-0.05
-0.049
-0.049
-0.05
-0.048
-0.047
-0.035
-0.011
0.023
0.069
0.127
0.186
0.249
0.285
0.294
0.277
0.236
0.165
0.085
0.023
-0.025
-0.059
-0.08
-0.073
-0.069
-0.068
-0.069
-0.068
-0.067
-0.065
-0.061
-0.058
-0.055
-0.049
-0.04
-0.032
-0.012
0.006
0.021
0.037
0.054
0.06
0.071
0.079
0.084
0.086
0.088
0.087
0.078
0.073
0.064
0.054
0.042
0.037
0.016
0.001
-0.016
-0.033
-0.049
-0.053
-0.061
-0.066
-0.07
-0.071
-0.071
-0.07
-0.069
-0.068
-0.068
-0.067
-0.065
-0.064
-0.063
-0.063
-0.064
-0.063
-0.062
-0.06
-0.059
-0.057
-0.058
-0.059
-0.06
-0.06
-0.058
-0.057
-0.055
-0.054
-0.052
-0.052
-0.051
-0.05
-0.049
-0.047
-0.041
-0.035
-0.021
-0.007
0.004
0.012
0.02
0.02
0.014
0.007
-0.004
-0.017
-0.029
-0.035
-0.039
-0.041
-0.043
-0.044
-0.045
-0.045
-0.044
-0.043
-0.043
-0.043
-0.043
-0.046
-0.009
0.04
0.098
0.166
0.25
0.308
0.318
0.305
0.265
0.199
0.106
0.037
-0.009
-0.04
-0.06
-0.065
-0.056
-0.056
-0.055
-0.054
-0.053
-0.053
-0.052
-0.051
-0.044
-0.037
-0.029
-0.019
-0.007
0.002
0.019
0.037
0.054
0.069
0.083
0.088
0.094
0.099
0.102
0.102
0.102
0.099
0.091
0.084
0.074
0.062
0.047
0.036
0.018
0.002
-0.016
-0.031
-0.045
-0.05
-0.052
-0.052
-0.052
-0.052
-0.052
-0.052
-0.05
-0.048
-0.048
-0.048
-0.047
-0.047
-0.046
-0.044
-0.044
-0.045
-0.045
-0.045
-0.044
-0.041
-0.04
-0.04
-0.04
-0.04
-0.041
-0.039
-0.04
-0.04
-0.041
-0.041
-0.038
-0.032
-0.023
-0.013
0.001
0.009
0.019
0.027
0.031
0.032
0.033
0.03
0.018
0.005
-0.009
-0.024
-0.036
-0.04
-0.041
-0.039
-0.038
-0.038
-0.038
-0.037
-0.037
-0.035
-0.036
-0.039
-0.044
-0.044
0.016
0.09
0.175
0.272
0.372
0.406
0.363
0.297
0.206
0.092
-0.021
-0.063
-0.082
-0.086
-0.078
-0.065
-0.055
-0.054
-0.054
-0.052
-0.052
-0.052
-0.052
-0.052
-0.043
-0.032
-0.019
-0.006
0.009
0.016
0.033
0.05
0.066
0.079
0.09
0.092
0.092
0.094
0.094
0.092
0.089
0.085
0.073
0.061
0.047
0.032
0.016
0.005
-0.011
-0.025
-0.039
-0.051
-0.061
-0.061
-0.062
-0.061
-0.061
-0.063
-0.064
-0.064
-0.064
-0.062
-0.062
-0.062
-0.061
-0.06
-0.06
-0.059
-0.058
-0.059
-0.059
-0.057
-0.059
-0.058
-0.057
-0.058
-0.058
-0.057
-0.057
-0.055
-0.054
-0.054
-0.053
-0.053
-0.046
-0.039
-0.031
-0.022
-0.011
-0.006
-0
0.006
0.01
0.01
0.007
0.003
-0.01
-0.021
-0.031
-0.042
-0.05
-0.05
-0.052
-0.052
-0.051
-0.051
-0.051
-0.05
-0.055
-0.056
-0.06
-0.06
-0.048
-0.017
0.089
0.191
0.296
0.378
0.433
0.393
0.28
0.164
0.052
-0.042
-0.12
-0.107
-0.098
-0.083
-0.072
-0.066
-0.063
-0.062
-0.062
-0.061
-0.06
-0.061
-0.061
-0.058
-0.042
-0.025
-0.004
0.017
0.039
0.05
0.063
0.072
0.08
0.086
0.091
0.092
0.091
0.087
0.081
0.073
0.066
0.059
0.045
0.029
0.012
-0.005
-0.023
-0.031
-0.041
-0.051
-0.058
-0.063
-0.066
-0.066
-0.064
-0.063
-0.062
-0.063
-0.062
-0.061
-0.059
-0.058
-0.056
-0.056
-0.055
-0.055
-0.053
-0.052
-0.051
-0.052
-0.052
-0.054
-0.054
-0.053
-0.052
-0.05
-0.047
-0.043
-0.03
-0.017
-0.005
0.008
0.02
0.023
0.022
0.019
0.011
0.001
-0.01
-0.018
-0.026
-0.032
-0.037
-0.041
-0.042
-0.042
-0.04
-0.039
-0.039
-0.038
-0.037
-0.036
-0.021
0.005
0.04
0.088
0.148
0.206
0.265
0.296
0.302
0.281
0.235
0.165
0.089
0.029
-0.015
-0.046
-0.063
-0.056
-0.052
-0.051
-0.05
-0.05
-0.049
-0.048
-0.046
-0.043
-0.039
-0.033
-0.025
-0.015
0.005
0.023
0.039
0.056
0.072
0.08
0.089
0.096
0.1
0.101
0.101
0.1
0.098
0.093
0.085
0.075
0.064
0.053
0.035
0.019
0.002
-0.016
-0.033
-0.041
-0.048
-0.052
-0.056
-0.057
-0.058
-0.057
-0.057
-0.056
-0.057
-0.056
-0.055
-0.053
-0.053
-0.051
-0.052
-0.052
-0.053
-0.052
-0.052
-0.05
-0.05
-0.048
-0.048
-0.046
-0.046
-0.045
-0.046
-0.045
-0.045
-0.043
-0.042
-0.04
-0.04
-0.037
-0.032
-0.025
-0.013
0
0.01
0.018
0.025
0.025
0.019
0.01
-0.002
-0.014
-0.027
-0.034
-0.038
-0.039
-0.041
-0.042
-0.042
-0.042
-0.041
-0.04
-0.04
-0.041
-0.042
-0.045
-0.008
0.042
0.101
0.172
0.257
0.314
0.32
0.301
0.257
0.186
0.088
0.02
-0.024
-0.053
-0.069
-0.072
-0.062
-0.061
-0.061
-0.061
-0.062
-0.062
-0.063
-0.062
-0.055
-0.046
-0.037
-0.027
-0.014
-0.006
0.011
0.029
0.045
0.059
0.073
0.078
0.082
0.085
0.087
0.087
0.085
0.082
0.074
0.066
0.054
0.041
0.026
0.015
-0.003
-0.018
-0.034
-0.05
-0.064
-0.069
-0.071
-0.071
-0.071
-0.071
-0.071
-0.071
-0.069
-0.068
-0.068
-0.068
-0.068
-0.068
-0.067
-0.065
-0.064
-0.063
-0.062
-0.061
-0.061
-0.059
-0.059
-0.06
-0.06
-0.06
-0.06
-0.058
-0.057
-0.058
-0.057
-0.057
-0.056
-0.051
-0.045
-0.04
-0.032
-0.023
-0.012
-0.001
0.006
0.01
0.013
0.011
-0
-0.011
-0.023
-0.035
-0.046
-0.049
-0.051
-0.05
-0.049
-0.049
-0.047
-0.046
-0.044
-0.044
-0.045
-0.049
-0.054
-0.051
0.011
0.086
0.175
0.274
0.372
0.402
0.355
0.285
0.189
0.074
-0.036
-0.076
-0.093
-0.094
-0.083
-0.07
-0.06
-0.06
-0.059
-0.057
-0.056
-0.056
-0.055
-0.055
-0.046
-0.033
-0.021
-0.009
0.006
0.014
0.03
0.047
0.063
0.076
0.088
0.09
0.091
0.093
0.094
0.092
0.089
0.086
0.074
0.06
0.046
0.029
0.011
0.001
-0.015
-0.029
-0.04
-0.051
-0.06
-0.061
-0.06
-0.058
-0.057
-0.058
-0.057
-0.057
-0.056
-0.054
-0.053
-0.054
-0.054
-0.053
-0.053
-0.051
-0.048
-0.048
-0.047
-0.047
-0.047
-0.046
-0.044
-0.045
-0.044
-0.044
-0.043
-0.041
-0.039
-0.039
-0.039
-0.039
-0.032
-0.022
-0.01
0.003
0.017
0.023
0.027
0.031
0.031
0.028
0.023
0.019
0.006
-0.006
-0.015
-0.025
-0.034
-0.034
-0.035
-0.035
-0.034
-0.034
-0.034
-0.033
-0.039
-0.042
-0.046
-0.043
-0.029
0.003
0.111
0.215
0.317
0.395
0.446
0.404
0.29
0.171
0.062
-0.029
-0.104
-0.092
-0.081
-0.069
-0.059
-0.054
-0.053
-0.054
-0.053
-0.052
-0.05
-0.048
-0.046
-0.043
-0.027
-0.012
0.005
0.021
0.037
0.043
0.059
0.072
0.085
0.094
0.101
0.101
0.099
0.095
0.092
0.086
0.08
0.072
0.056
0.038
0.02
0.001
-0.018
-0.027
-0.036
-0.044
-0.051
-0.056
-0.06
-0.06
-0.058
-0.056
-0.055
-0.055
-0.055
-0.055
-0.055
-0.054
-0.052
-0.052
-0.053
-0.053
-0.053
-0.051
-0.051
-0.051
-0.051
-0.051
-0.052
-0.051
-0.049
-0.048
-0.049
-0.049
-0.048
-0.045
-0.033
-0.02
-0.008
0.003
0.014
0.016
0.015
0.01
0.003
-0.007
-0.018
-0.027
-0.035
-0.042
-0.047
-0.05
-0.051
-0.05
-0.048
-0.047
-0.047
-0.047
-0.047
-0.046
-0.031
-0.005
0.032
0.081
0.142
0.202
0.257
0.286
0.287
0.263
0.213
0.143
0.069
0.012
-0.03
-0.059
-0.074
-0.068
-0.065
-0.065
-0.066
-0.066
-0.066
-0.065
-0.062
-0.057
-0.052
-0.045
-0.037
-0.028
-0.01
0.008
0.024
0.04
0.056
0.064
0.073
0.08
0.083
0.086
0.087
0.085
0.081
0.076
0.067
0.056
0.044
0.034
0.017
0.001
-0.017
-0.034
-0.051
-0.059
-0.065
-0.069
-0.072
-0.073
-0.072
-0.072
-0.071
-0.069
-0.068
-0.067
-0.066
-0.064
-0.064
-0.063
-0.063
-0.063
-0.063
-0.061
-0.061
-0.059
-0.059
-0.057
-0.056
-0.055
-0.056
-0.056
-0.057
-0.057
-0.057
-0.055
-0.054
-0.052
-0.052
-0.048
-0.043
-0.035
-0.022
-0.009
0.001
0.01
0.016
0.017
0.006
-0.002
-0.013
-0.024
-0.037
-0.038
-0.044
-0.045
-0.048
-0.048
-0.048
-0.046
-0.044
-0.043
-0.043
-0.043
-0.043
-0.047
-0.007
0.046
0.108
0.181
0.269
0.326
0.326
0.304
0.256
0.182
0.081
0.015
-0.027
-0.054
-0.069
-0.071
-0.059
-0.058
-0.058
-0.057
-0.057
-0.058
-0.057
-0.055
-0.048
-0.039
-0.03
-0.02
-0.008
0.001
0.018
0.037
0.053
0.067
0.081
0.085
0.089
0.095
0.097
0.099
0.093
0.085
0.072
0.057
0.042
0.031
0.008
-0.008
-0.024
-0.039
-0.053
-0.053
-0.056
-0.055
-0.054
-0.052
-0.051
-0.051
-0.052
-0.052
-0.052
-0.05
-0.049
-0.048
-0.047
-0.045
-0.045
-0.044
-0.043
-0.042
-0.041
-0.039
-0.038
-0.039
-0.039
-0.039
-0.038
-0.033
-0.028
-0.022
-0.014
-0.005
0.006
0.017
0.025
0.03
0.032
0.03
0.017
0.006
-0.007
-0.02
-0.031
-0.034
-0.035
-0.034
-0.034
-0.035
-0.034
-0.034
-0.034
-0.033
-0.032
-0.037
-0.041
-0.038
0.024
0.102
0.193
0.293
0.389
0.415
0.336
0.234
0.123
0.01
-0.09
-0.09
-0.077
-0.065
-0.056
-0.052
-0.05
-0.05
-0.049
-0.048
-0.047
-0.049
-0.049
-0.049
-0.04
-0.027
-0.014
-0
0.016
0.025
0.041
0.058
0.074
0.087
0.098
0.101
0.1
0.099
0.099
0.095
0.091
0.088
0.071
0.054
0.036
0.017
-0.003
-0.012
-0.024
-0.035
-0.046
-0.056
-0.062
-0.062
-0.062
-0.06
-0.058
-0.058
-0.057
-0.056
-0.057
-0.057
-0.057
-0.058
-0.059
-0.058
-0.058
-0.057
-0.057
-0.057
-0.057
-0.056
-0.056
-0.055
-0.054
-0.054
-0.054
-0.053
-0.053
-0.052
-0.051
-0.052
-0.052
-0.053
-0.047
-0.04
-0.031
-0.022
-0.011
-0.004
0.002
0.007
0.01
0.008
0.005
-0
-0.012
-0.024
-0.033
-0.042
-0.05
-0.05
-0.05
-0.049
-0.048
-0.049
-0.048
-0.048
-0.053
-0.056
-0.06
-0.056
-0.041
-0.008
0.099
0.203
0.302
0.377
0.424
0.381
0.266
0.148
0.041
-0.047
-0.118
-0.106
-0.093
-0.079
-0.069
-0.064
-0.062
-0.061
-0.062
-0.061
-0.06
-0.061
-0.061
-0.057
-0.04
-0.024
-0.006
0.011
0.028
0.033
0.049
0.062
0.076
0.086
0.092
0.09
0.089
0.086
0.084
0.081
0.077
0.072
0.057
0.041
0.025
0.009
-0.016
-0.031
-0.044
-0.056
-0.065
-0.065
-0.064
-0.064
-0.063
-0.062
-0.061
-0.059
-0.059
-0.059
-0.058
-0.058
-0.058
-0.059
-0.058
-0.057
-0.056
-0.054
-0.052
-0.051
-0.051
-0.049
-0.049
-0.048
-0.047
-0.047
-0.048
-0.048
-0.046
-0.041
-0.028
-0.015
-0.003
0.009
0.019
0.022
0.02
0.015
0.007
-0.004
-0.015
-0.022
-0.028
-0.033
-0.038
-0.04
-0.042
-0.041
-0.039
-0.038
-0.037
-0.037
-0.036
-0.037
-0.019
0.01
0.049
0.1
0.164
0.223
0.274
0.299
0.298
0.271
0.217
0.148
0.076
0.022
-0.018
-0.045
-0.058
-0.053
-0.051
-0.05
-0.05
-0.05
-0.05
-0.05
-0.047
-0.042
-0.037
-0.029
-0.019
-0.008
0.011
0.029
0.046
0.061
0.076
0.083
0.091
0.098
0.102
0.103
0.104
0.103
0.099
0.093
0.084
0.073
0.06
0.049
0.032
0.016
-0.001
-0.018
-0.035
-0.043
-0.049
-0.053
-0.055
-0.055
-0.055
-0.054
-0.052
-0.051
-0.051
-0.052
-0.053
-0.053
-0.052
-0.051
-0.052
-0.052
-0.051
-0.051
-0.049
-0.047
-0.046
-0.045
-0.044
-0.044
-0.043
-0.042
-0.042
-0.042
-0.042
-0.042
-0.041
-0.04
-0.038
-0.034
-0.028
-0.021
-0.007
0.007
0.016
0.025
0.031
0.03
0.016
0.007
-0.006
-0.02
-0.032
-0.032
-0.038
-0.039
-0.04
-0.041
-0.042
-0.041
-0.043
-0.042
-0.042
-0.042
-0.041
-0.043
0.019
0.074
0.136
0.21
0.3
0.333
0.302
0.275
0.223
0.145
0.041
0.003
-0.039
-0.064
-0.077
-0.076
-0.062
-0.061
-0.06
-0.059
-0.058
-0.057
-0.057
-0.056
-0.05
-0.041
-0.032
-0.021
-0.008
0
0.018
0.036
0.052
0.067
0.08
0.085
0.087
0.09
0.091
0.09
0.089
0.086
0.078
0.068
0.057
0.043
0.017
-0.004
-0.026
-0.045
-0.06
-0.065
-0.067
-0.065
-0.065
-0.065
-0.065
-0.065
-0.066
-0.065
-0.064
-0.065
-0.067
-0.068
-0.068
-0.068
-0.067
-0.065
-0.065
-0.065
-0.063
-0.062
-0.061
-0.059
-0.059
-0.06
-0.06
-0.06
-0.057
-0.051
-0.045
-0.039
-0.03
-0.021
-0.011
-0.001
0.006
0.009
0.011
0.007
-0.004
-0.015
-0.027
-0.04
-0.049
-0.052
-0.053
-0.053
-0.053
-0.055
-0.055
-0.055
-0.055
-0.052
-0.053
-0.057
-0.059
-0.05
0.016
0.097
0.192
0.292
0.381
0.4
0.341
0.258
0.152
0.037
-0.065
-0.095
-0.104
-0.098
-0.084
-0.072
-0.063
-0.063
-0.062
-0.06
-0.058
-0.058
-0.057
-0.055
-0.046
-0.033
-0.02
-0.007
0.008
0.017
0.034
0.05
0.065
0.077
0.088
0.09
0.091
0.093
0.094
0.092
0.089
0.085
0.072
0.059
0.044
0.028
0.01
0.001
-0.016
-0.03
-0.042
-0.054
-0.062
-0.062
-0.06
-0.058
-0.056
-0.057
-0.058
-0.058
-0.058
-0.057
-0.054
-0.054
-0.054
-0.053
-0.054
-0.054
-0.053
-0.054
-0.053
-0.052
-0.051
-0.049
-0.047
-0.047
-0.046
-0.046
-0.047
-0.046
-0.046
-0.046
-0.046
-0.045
-0.038
-0.028
-0.017
-0.007
0.005
0.012
0.018
0.024
0.028
0.027
0.023
0.017
0.004
-0.008
-0.017
-0.027
-0.035
-0.036
-0.036
-0.035
-0.033
-0.033
-0.032
-0.033
-0.033
-0.037
-0.039
-0.033
-0.015
0.016
0.107
0.211
0.309
0.38
0.424
0.395
0.287
0.167
0.063
-0.024
-0.092
-0.09
-0.075
-0.062
-0.052
-0.048
-0.046
-0.047
-0.047
-0.046
-0.044
-0.044
-0.042
-0.038
-0.022
-0.008
0.009
0.025
0.042
0.048
0.063
0.076
0.088
0.096
0.102
0.101
0.099
0.096
0.077
0.06
0.04
0.019
-0.003
-0.008
-0.021
-0.031
-0.039
-0.047
-0.054
-0.055
-0.055
-0.056
-0.055
-0.054
-0.055
-0.055
-0.054
-0.054
-0.052
-0.052
-0.053
-0.053
-0.053
-0.053
-0.052
-0.05
-0.051
-0.051
-0.051
-0.05
-0.049
-0.049
-0.048
-0.048
-0.048
-0.047
-0.046
-0.046
-0.047
-0.046
-0.035
-0.023
-0.01
0.005
0.02
0.023
0.02
0.013
0.005
-0.006
-0.02
-0.028
-0.034
-0.04
-0.045
-0.048
-0.049
-0.048
-0.048
-0.047
-0.047
-0.047
-0.046
-0.045
-0.025
0.006
0.047
0.099
0.164
0.223
0.269
0.288
0.282
0.249
0.191
0.122
0.053
0.001
-0.037
-0.062
-0.073
-0.067
-0.066
-0.065
-0.066
-0.066
-0.066
-0.065
-0.062
-0.058
-0.052
-0.044
-0.033
-0.022
-0.004
0.014
0.03
0.046
0.062
0.069
0.077
0.084
0.087
0.088
0.088
0.086
0.082
0.075
0.065
0.054
0.041
0.031
0.016
0.001
-0.016
-0.033
-0.05
-0.058
-0.064
-0.067
-0.068
-0.068
-0.067
-0.066
-0.065
-0.065
-0.066
-0.066
-0.066
-0.065
-0.063
-0.061
-0.062
-0.062
-0.062
-0.06
-0.06
-0.06
-0.06
-0.06
-0.06
-0.059
-0.056
-0.053
-0.053
-0.052
-0.051
-0.051
-0.049
-0.047
-0.034
-0.02
-0.007
0.005
0.018
0.018
0.01
0.001
-0.01
-0.022
-0.034
-0.038
-0.043
-0.044
-0.045
-0.045
-0.046
-0.045
-0.044
-0.043
-0.044
-0.044
-0.044
-0.048
0.017
0.074
0.139
0.216
0.309
0.343
0.308
0.279
0.224
0.142
0.033
-0.003
-0.042
-0.064
-0.074
-0.069
-0.054
-0.053
-0.054
-0.053
-0.055
-0.055
-0.054
-0.052
-0.042
-0.031
-0.022
-0.011
0.001
0.007
0.025
0.044
0.061
0.077
0.091
0.094
0.096
0.098
0.098
0.099
0.097
0.095
0.086
0.077
0.065
0.051
0.037
0.026
0.008
-0.008
-0.023
-0.037
-0.049
-0.052
-0.054
-0.053
-0.053
-0.053
-0.053
-0.053
-0.052
-0.051
-0.05
-0.05
-0.049
-0.049
-0.048
-0.046
-0.045
-0.046
-0.045
-0.045
-0.046
-0.045
-0.045
-0.044
-0.044
-0.043
-0.042
-0.041
-0.04
-0.04
-0.04
-0.04
-0.038
-0.034
-0.028
-0.02
-0.01
-0.001
0.01
0.019
0.025
0.028
0.028
0.025
0.013
0.001
-0.011
-0.022
-0.032
-0.034
-0.036
-0.036
-0.036
-0.037
-0.038
-0.038
-0.039
-0.039
-0.04
-0.044
-0.046
-0.037
0.029
0.111
0.206
0.307
0.397
0.416
0.356
0.272
0.166
0.05
-0.051
-0.081
-0.091
-0.085
-0.072
-0.061
-0.053
-0.053
-0.053
-0.052
-0.051
-0.052
-0.052
-0.051
-0.04
-0.027
-0.013
0.001
0.016
0.024
0.04
0.056
0.071
0.084
0.095
0.096
0.096
0.096
0.096
0.092
0.088
0.084
0.071
0.058
0.044
0.029
0.012
0.002
-0.014
-0.028
-0.041
-0.053
-0.063
-0.062
-0.063
-0.062
-0.062
-0.064
-0.064
-0.063
-0.061
-0.059
-0.057
-0.058
-0.058
-0.059
-0.059
-0.057
-0.056
-0.056
-0.056
-0.056
-0.055
-0.054
-0.053
-0.053
-0.053
-0.053
-0.054
-0.053
-0.053
-0.054
-0.054
-0.053
-0.047
-0.039
-0.028
-0.018
-0.006
0.002
0.006
0.008
0.007
0.002
-0.006
-0.014
-0.023
-0.031
-0.039
-0.046
-0.05
-0.05
-0.05
-0.049
-0.048
-0.049
-0.048
-0.048
-0.05
-0.053
-0.053
-0.046
-0.026
0.007
0.1
0.204
0.298
0.364
0.403
0.371
0.26
0.143
0.042
-0.042
-0.108
-0.104
-0.091
-0.078
-0.069
-0.066
-0.064
-0.064
-0.064
-0.063
-0.062
-0.062
-0.059
-0.054
-0.036
-0.019
-0
0.016
0.033
0.038
0.05
0.062
0.073
0.081
0.088
0.089
0.087
0.085
0.084
0.08
0.074
0.069
0.05
0.034
0.018
0.001
-0.016
-0.021
-0.033
-0.043
-0.051
-0.058
-0.064
-0.063
-0.064
-0.064
-0.064
-0.063
-0.063
-0.062
-0.06
-0.06
-0.06
-0.059
-0.058
-0.056
-0.054
-0.053
-0.054
-0.054
-0.053
-0.053
-0.052
-0.051
-0.051
-0.05
-0.049
-0.048
-0.046
-0.046
-0.047
-0.047
-0.035
-0.024
-0.011
0.003
0.016
0.017
0.015
0.014
0.011
0.006
-0.003
-0.007
-0.018
-0.027
-0.034
-0.04
-0.045
-0.043
-0.042
-0.042
-0.041
-0.039
-0.039
-0.037
-0.016
0.017
0.061
0.115
0.182
0.243
0.286
0.302
0.292
0.256
0.193
0.124
0.058
0.008
-0.027
-0.05
-0.06
-0.057
-0.055
-0.055
-0.054
-0.052
-0.05
-0.048
-0.044
-0.039
-0.033
-0.025
-0.016
-0.007
0.012
0.03
0.046
0.063
0.08
0.088
0.095
0.101
0.103
0.104
0.103
0.103
0.098
0.092
0.083
0.072
0.059
0.048
0.031
0.015
-0.002
-0.019
-0.035
-0.042
-0.046
-0.049
-0.051
-0.051
-0.051
-0.051
-0.051
-0.051
-0.052
-0.054
-0.055
-0.054
-0.052
-0.051
-0.051
-0.051
-0.051
-0.051
-0.05
-0.049
-0.048
-0.048
-0.048
-0.048
-0.047
-0.046
-0.047
-0.048
-0.048
-0.047
-0.045
-0.043
-0.041
-0.037
-0.032
-0.024
-0.011
0.001
0.011
0.019
0.024
0.024
0.016
0.005
-0.006
-0.018
-0.032
-0.037
-0.041
-0.042
-0.043
-0.044
-0.043
-0.042
-0.042
-0.041
-0.041
-0.041
-0.043
-0.048
-0.003
0.054
0.121
0.2
0.295
0.351
0.339
0.305
0.245
0.158
0.046
-0.016
-0.052
-0.074
-0.082
-0.076
-0.063
-0.062
-0.061
-0.059
-0.059
-0.058
-0.052
-0.044
-0.035
-0.023
-0.009
0
0.017
0.035
0.05
0.064
0.079
0.084
0.085
0.086
0.086
0.083
0.068
0.059
0.047
0.033
0.017
0.013
-0.009
-0.025
-0.041
-0.055
-0.068
-0.068
-0.069
-0.067
-0.068
-0.067
-0.066
-0.066
-0.065
-0.063
-0.063
-0.063
-0.063
-0.062
-0.063
-0.061
-0.06
-0.06
-0.06
-0.059
-0.059
-0.058
-0.058
-0.058
-0.058
-0.058
-0.057
-0.055
-0.056
-0.056
-0.055
-0.055
-0.052
-0.047
-0.042
-0.035
-0.026
-0.017
-0.005
0.005
0.012
0.015
0.017
0.012
-0
-0.012
-0.024
-0.036
-0.046
-0.047
-0.047
-0.046
-0.047
-0.048
-0.048
-0.048
-0.048
-0.046
-0.047
-0.053
-0.054
-0.045
0.024
0.108
0.205
0.306
0.393
0.408
0.344
0.257
0.148
0.034
-0.065
-0.092
-0.1
-0.093
-0.08
-0.07
-0.062
-0.061
-0.061
-0.059
-0.058
-0.059
-0.058
-0.057
-0.047
-0.033
-0.019
-0.004
0.013
0.023
0.04
0.057
0.071
0.082
0.092
0.093
0.093
0.093
0.092
0.089
0.085
0.081
0.068
0.057
0.043
0.027
0.009
-0
-0.017
-0.029
-0.041
-0.052
-0.061
-0.061
-0.062
-0.06
-0.059
-0.06
-0.059
-0.059
-0.058
-0.056
-0.055
-0.056
-0.055
-0.055
-0.056
-0.055
-0.052
-0.051
-0.048
-0.046
-0.044
-0.043
-0.043
-0.044
-0.044
-0.044
-0.044
-0.043
-0.042
-0.042
-0.042
-0.043
-0.038
-0.029
-0.02
-0.008
0.005
0.012
0.018
0.023
0.023
0.02
0.016
0.009
-0.003
-0.013
-0.023
-0.032
-0.038
-0.039
-0.04
-0.039
-0.038
-0.038
-0.037
-0.036
-0.037
-0.041
-0.04
-0.029
-0.007
0.029
0.126
0.23
0.319
0.381
0.416
0.38
0.265
0.15
0.052
-0.029
-0.092
-0.084
-0.07
-0.059
-0.052
-0.048
-0.047
-0.047
-0.046
-0.045
-0.044
-0.043
-0.04
-0.035
-0.023
-0.007
0.023
0.05
0.076
0.093
0.107
0.105
0.103
0.101
0.099
0.095
0.088
0.082
0.065
0.048
0.031
0.015
-0.002
-0.011
-0.024
-0.034
-0.043
-0.051
-0.056
-0.056
-0.054
-0.053
-0.051
-0.051
-0.051
-0.051
-0.051
-0.051
-0.05
-0.052
-0.052
-0.051
-0.051
-0.05
-0.048
-0.048
-0.048
-0.048
-0.049
-0.049
-0.048
-0.048
-0.048
-0.048
-0.048
-0.048
-0.047
-0.048
-0.048
-0.048
-0.035
-0.023
-0.009
0.005
0.017
0.017
0.014
0.01
0.006
-0.001
-0.01
-0.015
-0.025
-0.033
-0.039
-0.044
-0.047
-0.047
-0.047
-0.046
-0.045
-0.044
-0.043
-0.043
-0.02
-0.008
0.015
0.049
0.094
0.126
0.187
0.248
0.285
0.296
0.281
0.237
0.145
0.069
0.008
-0.039
-0.071
-0.067
-0.065
-0.064
-0.063
-0.063
-0.063
-0.062
-0.059
-0.056
-0.05
-0.043
-0.033
-0.023
-0.005
0.013
0.03
0.045
0.061
0.069
0.076
0.082
0.086
0.086
0.086
0.084
0.079
0.072
0.064
0.053
0.04
0.029
0.011
-0.007
-0.024
-0.041
-0.057
-0.064
-0.068
-0.071
-0.072
-0.073
-0.073
-0.072
-0.07
-0.069
-0.067
-0.066
-0.065
-0.065
-0.064
-0.063
-0.061
-0.06
-0.059
-0.058
-0.057
-0.057
-0.057
-0.057
-0.058
-0.058
-0.057
-0.056
-0.055
-0.054
-0.053
-0.053
-0.052
-0.051
-0.048
-0.044
-0.038
-0.03
-0.017
-0.005
-0.006
-0.008
-0.013
-0.026
-0.04
-0.04
-0.043
-0.045
-0.045
-0.045
-0.046
-0.045
-0.045
-0.044
-0.043
-0.042
-0.044
-0.048
-0
0.058
0.127
0.209
0.307
0.361
0.32
0.281
0.218
0.127
0.011
-0.021
-0.053
-0.072
-0.077
-0.068
-0.053
-0.052
-0.051
-0.05
-0.05
-0.051
-0.051
-0.051
-0.044
-0.035
-0.025
-0.013
0.014
0.035
0.054
0.073
0.091
0.094
0.096
0.1
0.101
0.1
0.099
0.099
0.084
0.075
0.062
0.048
0.03
0.026
0.009
-0.007
-0.023
-0.037
-0.05
-0.052
-0.053
-0.051
-0.051
-0.05
-0.05
-0.049
-0.05
-0.049
-0.05
-0.05
-0.049
-0.046
-0.046
-0.044
-0.043
-0.043
-0.043
-0.042
-0.043
-0.042
-0.043
-0.043
-0.043
-0.041
-0.041
-0.039
-0.039
-0.038
-0.037
-0.035
-0.032
-0.027
-0.021
-0.015
-0.006
0.003
0.014
0.023
0.029
0.032
0.032
0.027
0.015
0.002
-0.012
-0.025
-0.036
-0.037
-0.037
-0.036
-0.036
-0.036
-0.036
-0.036
-0.035
-0.034
-0.037
-0.043
-0.043
-0.031
0.042
0.129
0.228
0.328
0.411
0.42
0.352
0.261
0.147
0.034
-0.064
-0.088
-0.092
-0.082
-0.068
-0.059
-0.053
-0.052
-0.052
-0.05
-0.049
-0.05
-0.05
-0.048
-0.038
-0.025
-0.012
0.002
0.018
0.028
0.044
0.061
0.074
0.085
0.093
0.094
0.095
0.097
0.096
0.093
0.09
0.086
0.072
0.059
0.044
0.026
0.008
-0.002
-0.018
-0.031
-0.044
-0.056
-0.066
-0.066
-0.065
-0.063
-0.062
-0.062
-0.061
-0.061
-0.061
-0.059
-0.058
-0.058
-0.058
-0.057
-0.057
-0.056
-0.056
-0.056
-0.056
-0.056
-0.055
-0.053
-0.052
-0.053
-0.052
-0.052
-0.052
-0.051
-0.051
-0.051
-0.051
-0.051
-0.045
-0.035
-0.025
-0.014
-0.001
0.005
0.01
0.014
0.014
0.011
0.005
-0.001
-0.014
-0.025
-0.034
-0.043
-0.05
-0.05
-0.05
-0.05
-0.049
-0.05
-0.05
-0.05
-0.052
-0.057
-0.056
-0.045
-0.023
0.016
0.115
0.22
0.305
0.361
0.393
0.354
0.238
0.125
0.031
-0.048
-0.109
-0.101
-0.088
-0.076
-0.07
-0.068
-0.067
-0.066
-0.067
-0.065
-0.06
-0.055
-0.039
-0.022
-0.006
0.009
0.026
0.032
0.045
0.059
0.072
0.08
0.086
0.086
0.084
0.083
0.081
0.077
0.056
0.034
0.011
-0.013
-0.035
-0.042
-0.049
-0.054
-0.059
-0.064
-0.066
-0.066
-0.066
-0.064
-0.063
-0.064
-0.063
-0.062
-0.062
-0.059
-0.057
-0.056
-0.055
-0.055
-0.056
-0.055
-0.054
-0.054
-0.053
-0.052
-0.051
-0.049
-0.048
-0.047
-0.046
-0.047
-0.047
-0.047
-0.047
-0.046
-0.042
-0.036
-0.022
-0.01
0.002
0.012
0.021
0.022
0.018
0.015
0.011
0.004
-0.005
-0.01
-0.019
-0.027
-0.032
-0.036
-0.039
-0.038
-0.038
-0.037
-0.037
-0.037
-0.037
-0.036
-0.011
0.003
0.03
0.066
0.113
0.146
0.203
0.261
0.296
0.304
0.286
0.243
0.153
0.075
0.015
-0.031
-0.062
-0.06
-0.053
-0.05
-0.048
-0.047
-0.047
-0.046
-0.043
-0.041
-0.037
-0.032
-0.026
-0.021
0
0.017
0.036
0.053
0.069
0.073
0.085
0.092
0.098
0.102
0.106
0.104
0.1
0.092
0.082
0.069
0.055
0.045
0.029
0.012
-0.005
-0.022
-0.037
-0.043
-0.047
-0.05
-0.052
-0.053
-0.052
-0.052
-0.05
-0.05
-0.051
-0.052
-0.051
-0.049
-0.048
-0.047
-0.048
-0.049
-0.049
-0.049
-0.047
-0.046
-0.046
-0.046
-0.046
-0.046
-0.045
-0.045
-0.044
-0.045
-0.044
-0.043
-0.042
-0.041
-0.037
-0.032
-0.026
-0.017
-0.002
0.01
0.019
0.025
0.03
0.029
0.019
0.009
-0.003
-0.017
-0.03
-0.034
-0.037
-0.038
-0.039
-0.04
-0.041
-0.041
-0.041
-0.041
-0.042
-0.042
-0.045
-0.049
0.001
0.062
0.133
0.217
0.317
0.37
0.352
0.31
0.242
0.146
0.036
-0.011
-0.043
-0.06
-0.064
-0.062
-0.061
-0.06
-0.06
-0.06
-0.053
-0.044
-0.034
-0.022
0.005
0.024
0.042
0.06
0.076
0.078
0.082
0.085
0.072
0.063
0.048
0.03
0.013
0.009
-0.008
-0.023
-0.039
-0.053
-0.066
-0.067
-0.067
-0.066
-0.065
-0.065
-0.065
-0.065
-0.064
-0.063
-0.063
-0.062
-0.062
-0.06
-0.061
-0.061
-0.062
-0.062
-0.063
-0.061
-0.06
-0.058
-0.059
-0.058
-0.058
-0.056
-0.057
-0.056
-0.056
-0.056
-0.056
-0.054
-0.048
-0.043
-0.038
-0.03
-0.021
-0.014
-0.006
0.003
0.008
0.011
0.011
0.009
-0.005
-0.016
-0.029
-0.04
-0.052
-0.051
-0.053
-0.052
-0.053
-0.051
-0.051
-0.05
-0.049
-0.047
-0.049
-0.052
-0.05
-0.036
0.037
0.124
0.223
0.321
0.401
0.407
0.337
0.243
0.128
0.018
-0.078
-0.101
-0.103
-0.092
-0.079
-0.07
-0.063
-0.062
-0.061
-0.059
-0.058
-0.057
-0.056
-0.054
-0.041
-0.028
-0.015
0
0.016
0.025
0.042
0.058
0.071
0.082
0.091
0.092
0.093
0.094
0.093
0.089
0.086
0.081
0.069
0.055
0.039
0.022
0.005
-0.004
-0.019
-0.031
-0.043
-0.053
-0.061
-0.06
-0.058
-0.056
-0.056
-0.055
-0.055
-0.055
-0.054
-0.052
-0.052
-0.052
-0.051
-0.051
-0.051
-0.049
-0.049
-0.049
-0.048
-0.046
-0.045
-0.044
-0.045
-0.045
-0.045
-0.044
-0.043
-0.041
-0.04
-0.04
-0.039
-0.039
-0.031
-0.021
-0.012
-0.001
0.012
0.018
0.024
0.029
0.029
0.025
0.02
0.014
0.001
-0.01
-0.021
-0.03
-0.037
-0.036
-0.036
-0.034
-0.034
-0.035
-0.035
-0.034
-0.037
-0.04
-0.037
-0.024
0.002
0.043
0.145
0.249
0.33
0.383
0.411
0.366
0.247
0.136
0.044
-0.032
-0.092
-0.081
-0.067
-0.057
-0.051
-0.05
-0.049
-0.049
-0.05
-0.048
-0.044
-0.038
-0.024
-0.006
0.01
0.026
0.042
0.051
0.064
0.078
0.088
0.095
0.098
0.093
0.087
0.08
0.064
0.049
0.031
0.012
-0.006
-0.016
-0.028
-0.036
-0.044
-0.051
-0.056
-0.057
-0.056
-0.055
-0.054
-0.054
-0.054
-0.054
-0.054
-0.052
-0.05
-0.05
-0.05
-0.049
-0.049
-0.047
-0.047
-0.048
-0.048
-0.048
-0.048
-0.047
-0.047
-0.048
-0.048
-0.048
-0.048
-0.047
-0.047
-0.047
-0.047
-0.046
-0.035
-0.021
-0.008
0.004
0.015
0.017
0.016
0.015
0.01
0.003
-0.007
-0.015
-0.025
-0.032
-0.039
-0.044
-0.048
-0.048
-0.049
-0.049
-0.048
-0.047
-0.046
-0.046
-0.02
-0.004
0.021
0.057
0.106
0.141
0.192
0.248
0.277
0.28
0.257
0.215
0.127
0.052
-0.005
-0.048
-0.077
-0.075
-0.071
-0.069
-0.069
-0.07
-0.07
-0.068
-0.065
-0.061
-0.056
-0.051
-0.043
-0.037
-0.017
0.002
0.02
0.036
0.053
0.057
0.067
0.076
0.084
0.088
0.091
0.089
0.082
0.078
0.072
0.063
0.053
0.047
0.025
0.009
-0.008
-0.025
-0.042
-0.046
-0.055
-0.062
-0.065
-0.068
-0.068
-0.066
-0.064
-0.064
-0.064
-0.064
-0.063
-0.063
-0.062
-0.062
-0.061
-0.062
-0.061
-0.06
-0.059
-0.058
-0.058
-0.058
-0.057
-0.056
-0.056
-0.055
-0.054
-0.054
-0.053
-0.052
-0.051
-0.05
-0.047
-0.044
-0.037
-0.027
-0.013
-0.001
0.009
0.015
0.02
0.018
0.009
-0.002
-0.014
-0.027
-0.039
-0.043
-0.044
-0.045
-0.045
-0.045
-0.044
-0.043
-0.041
-0.04
-0.039
-0.04
-0.044
-0.048
0.003
0.065
0.138
0.226
0.328
0.378
0.356
0.31
0.237
0.136
0.018
-0.037
-0.066
-0.081
-0.081
-0.069
-0.056
-0.055
-0.054
-0.054
-0.053
-0.052
-0.052
-0.051
-0.044
-0.035
-0.024
-0.012
0.003
0.012
0.03
0.048
0.064
0.078
0.092
0.096
0.097
0.099
0.099
0.097
0.095
0.094
0.086
0.076
0.064
0.048
0.032
0.022
0.004
-0.012
-0.028
-0.042
-0.054
-0.056
-0.056
-0.055
-0.053
-0.053
-0.052
-0.051
-0.05
-0.05
-0.049
-0.049
-0.049
-0.047
-0.045
-0.044
-0.044
-0.044
-0.043
-0.043
-0.042
-0.041
-0.04
-0.04
-0.04
-0.039
-0.039
-0.039
-0.038
-0.037
-0.037
-0.035
-0.028
-0.022
-0.015
-0.006
0.003
0.009
0.016
0.023
0.027
0.029
0.028
0.025
0.012
0
-0.012
-0.023
-0.032
-0.032
-0.032
-0.032
-0.032
-0.031
-0.031
-0.03
-0.034
-0.034
-0.038
-0.043
-0.04
-0.02
0.076
0.167
0.267
0.364
0.441
0.422
0.32
0.222
0.105
-0.003
-0.096
-0.088
-0.089
-0.077
-0.064
-0.055
-0.05
-0.049
-0.048
-0.048
-0.048
-0.048
-0.048
-0.046
-0.035
-0.022
-0.008
0.006
0.021
0.03
0.047
0.063
0.076
0.087
0.096
0.097
0.098
0.098
0.096
0.092
0.088
0.084
0.07
0.056
0.04
0.022
0.003
-0.006
-0.022
-0.035
-0.046
-0.057
-0.065
-0.064
-0.063
-0.061
-0.061
-0.06
-0.061
-0.061
-0.06
-0.059
-0.057
-0.057
-0.057
-0.056
-0.056
-0.056
-0.057
-0.057
-0.057
-0.057
-0.055
-0.053
-0.053
-0.052
-0.051
-0.051
-0.051
-0.051
-0.051
-0.052
-0.053
-0.053
-0.045
-0.035
-0.024
-0.013
0
0.007
0.012
0.015
0.014
0.009
-0.004
-0.018
-0.032
-0.043
-0.053
-0.053
-0.053
-0.052
-0.051
-0.051
-0.051
-0.051
-0.055
-0.059
-0.053
-0.035
-0.004
0.043
0.148
0.246
0.317
0.362
0.381
0.328
0.209
0.105
0.018
-0.052
-0.105
-0.092
-0.081
-0.072
-0.067
-0.066
-0.065
-0.063
-0.062
-0.06
-0.057
-0.051
-0.036
-0.02
-0.003
0.014
0.03
0.04
0.054
0.065
0.074
0.08
0.084
0.085
0.083
0.083
0.081
0.077
0.07
0.062
0.046
0.029
0.011
-0.007
-0.024
-0.033
-0.044
-0.053
-0.06
-0.066
-0.07
-0.07
-0.069
-0.068
-0.067
-0.067
-0.067
-0.068
-0.067
-0.064
-0.063
-0.062
-0.061
-0.061
-0.06
-0.059
-0.058
-0.057
-0.056
-0.056
-0.054
-0.052
-0.052
-0.051
-0.051
-0.05
-0.05
-0.048
-0.048
-0.047
-0.046
-0.044
-0.034
-0.022
-0.009
0.003
0.015
0.019
0.019
0.017
0.012
0.004
-0.007
-0.016
-0.026
-0.032
-0.037
-0.04
-0.043
-0.043
-0.042
-0.041
-0.04
-0.038
-0.038
-0.038
-0.033
-0.016
0.013
0.053
0.103
0.162
0.237
0.288
0.313
0.311
0.284
0.214
0.129
0.058
0.004
-0.036
-0.064
-0.063
-0.059
-0.057
-0.056
-0.055
-0.054
-0.052
-0.048
-0.044
-0.039
-0.032
-0.025
-0.019
0.001
0.018
0.035
0.052
0.068
0.074
0.084
0.094
0.101
0.106
0.108
0.106
0.099
0.094
0.087
0.079
0.068
0.062
0.039
0.022
0.005
-0.012
-0.03
-0.035
-0.043
-0.048
-0.051
-0.053
-0.054
-0.054
-0.054
-0.053
-0.052
-0.051
-0.05
-0.05
-0.05
-0.049
-0.049
-0.049
-0.048
-0.047
-0.048
-0.047
-0.047
-0.047
-0.046
-0.045
-0.046
-0.045
-0.045
-0.044
-0.043
-0.041
-0.04
-0.037
-0.034
-0.029
-0.021
-0.013
-0.001
0.01
0.018
0.024
0.029
0.028
0.019
0.008
-0.006
-0.021
-0.032
-0.037
-0.039
-0.041
-0.041
-0.042
-0.041
-0.04
-0.039
-0.039
-0.039
-0.041
-0.044
-0.048
0.004
0.066
0.141
0.231
0.335
0.383
0.357
0.306
0.215
0.111
0.003
-0.038
-0.064
-0.062
-0.062
-0.061
-0.06
-0.061
-0.06
-0.06
-0.053
-0.044
-0.034
-0.023
-0.008
0.002
0.02
0.038
0.054
0.067
0.08
0.083
0.086
0.087
0.086
0.083
0.081
0.078
0.069
0.058
0.045
0.029
0.013
0.003
-0.014
-0.03
-0.044
-0.058
-0.069
-0.07
-0.069
-0.069
-0.068
-0.068
-0.067
-0.066
-0.065
-0.065
-0.065
-0.065
-0.065
-0.064
-0.063
-0.063
-0.063
-0.064
-0.063
-0.063
-0.062
-0.062
-0.061
-0.062
-0.061
-0.06
-0.059
-0.058
-0.057
-0.057
-0.056
-0.055
-0.051
-0.045
-0.037
-0.029
-0.018
-0.009
0.001
0.007
0.012
0.013
0.011
0.006
-0.007
-0.019
-0.03
-0.041
-0.05
-0.049
-0.051
-0.052
-0.053
-0.054
-0.055
-0.053
-0.056
-0.056
-0.06
-0.064
-0.057
-0.034
0.064
0.156
0.258
0.353
0.426
0.403
0.302
0.2
0.083
-0.023
-0.112
-0.104
-0.103
-0.09
-0.079
-0.071
-0.067
-0.065
-0.065
-0.063
-0.062
-0.061
-0.06
-0.057
-0.042
-0.028
-0.014
0.002
0.019
0.026
0.042
0.057
0.069
0.08
0.089
0.091
0.092
0.092
0.09
0.087
0.083
0.08
0.068
0.054
0.038
0.019
0.001
-0.008
-0.022
-0.034
-0.044
-0.054
-0.062
-0.062
-0.061
-0.061
-0.06
-0.06
-0.06
-0.059
-0.057
-0.056
-0.055
-0.055
-0.054
-0.053
-0.052
-0.051
-0.05
-0.05
-0.05
-0.05
-0.049
-0.048
-0.048
-0.049
-0.048
-0.049
-0.048
-0.047
-0.046
-0.045
-0.044
-0.043
-0.034
-0.024
-0.013
-0.001
0.013
0.019
0.025
0.027
0.027
0.023
0.017
0.01
-0.001
-0.011
-0.021
-0.029
-0.036
-0.036
-0.035
-0.034
-0.033
-0.033
-0.033
-0.033
-0.037
-0.04
-0.034
-0.017
0.013
0.059
0.163
0.26
0.331
0.375
0.395
0.342
0.225
0.122
0.036
-0.035
-0.09
-0.076
-0.064
-0.055
-0.049
-0.048
-0.048
-0.048
-0.047
-0.047
-0.046
-0.044
-0.029
-0.014
0.004
0.025
0.046
0.057
0.072
0.084
0.094
0.1
0.104
0.104
0.103
0.1
0.097
0.09
0.082
0.075
0.06
0.043
0.025
0.006
-0.013
-0.022
-0.033
-0.042
-0.05
-0.057
-0.061
-0.061
-0.06
-0.058
-0.057
-0.057
-0.058
-0.057
-0.057
-0.056
-0.055
-0.056
-0.056
-0.057
-0.056
-0.055
-0.055
-0.054
-0.054
-0.054
-0.053
-0.052
-0.052
-0.052
-0.053
-0.053
-0.053
-0.053
-0.051
-0.048
-0.044
-0.037
-0.025
-0.013
-0.003
0.006
0.014
0.017
0.017
0.014
0.008
-0.001
-0.012
-0.021
-0.029
-0.035
-0.04
-0.044
-0.046
-0.045
-0.044
-0.045
-0.045
-0.046
-0.048
-0.047
-0.039
-0.02
0.01
0.051
0.103
0.161
0.233
0.28
0.3
0.295
0.263
0.192
0.105
0.036
-0.016
-0.055
-0.081
-0.073
-0.068
-0.066
-0.066
-0.065
-0.064
-0.064
-0.062
-0.059
-0.055
-0.049
-0.042
-0.033
-0.016
0.002
0.018
0.034
0.05
0.058
0.067
0.076
0.082
0.086
0.087
0.088
0.08
0.076
0.07
0.061
0.048
0.042
0.019
0.002
-0.015
-0.031
-0.049
-0.053
-0.061
-0.066
-0.069
-0.071
-0.072
-0.07
-0.07
-0.069
-0.069
-0.068
-0.068
-0.066
-0.066
-0.064
-0.063
-0.063
-0.063
-0.062
-0.062
-0.061
-0.059
-0.058
-0.058
-0.057
-0.057
-0.056
-0.055
-0.054
-0.054
-0.052
-0.053
-0.052
-0.051
-0.05
-0.047
-0.041
-0.027
-0.013
-0.001
0.009
0.017
0.018
0.008
0.002
-0.007
-0.018
-0.031
-0.034
-0.04
-0.043
-0.046
-0.046
-0.045
-0.044
-0.044
-0.044
-0.043
-0.045
-0.049
-0.051
0.004
0.068
0.107
0.135
0.148
0.089
0.023
-0.016
-0.04
-0.05
-0.046
-0.045
-0.044
-0.043
-0.042
-0.042
-0.041
-0.04
-0.032
-0.021
-0.01
0.003
0.019
0.027
0.044
0.061
0.076
0.09
0.104
0.107
0.11
0.111
0.109
0.107
0.107
0.104
0.094
0.082
0.067
0.051
0.035
0.026
0.011
-0.004
-0.019
-0.032
-0.042
-0.045
-0.045
-0.046
-0.047
-0.047
-0.046
-0.045
-0.043
-0.042
-0.041
-0.041
-0.039
-0.039
-0.039
-0.04
-0.04
-0.041
-0.039
-0.039
-0.037
-0.036
-0.036
-0.035
-0.034
-0.033
-0.032
-0.031
-0.032
-0.032
-0.031
-0.03
-0.027
-0.022
-0.015
-0.006
0.006
0.014
0.023
0.029
0.033
0.033
0.033
0.028
0.016
0.004
-0.008
-0.02
-0.029
-0.03
-0.029
-0.029
-0.028
-0.028
-0.027
-0.026
-0.026
-0.026
-0.031
-0.034
-0.027
-0.007
0.092
0.185
0.286
0.379
0.449
0.422
0.339
0.233
0.114
0.008
-0.077
-0.09
-0.087
-0.073
-0.062
-0.056
-0.052
-0.051
-0.051
-0.05
-0.049
-0.049
-0.047
-0.045
-0.03
-0.016
-0.002
0.014
0.032
0.039
0.055
0.069
0.081
0.09
0.099
0.1
0.099
0.098
0.095
0.092
0.089
0.086
0.069
0.055
0.038
0.02
0.003
-0.002
-0.016
-0.028
-0.04
-0.05
-0.057
-0.056
-0.056
-0.056
-0.056
-0.056
-0.055
-0.055
-0.054
-0.053
-0.054
-0.055
-0.055
-0.055
-0.055
-0.054
-0.054
-0.055
-0.054
-0.055
-0.054
-0.054
-0.054
-0.055
-0.054
-0.054
-0.053
-0.052
-0.052
-0.053
-0.052
-0.052
-0.044
-0.034
-0.023
-0.012
0.001
0.008
0.013
0.016
0.015
0.01
0.004
-0.004
-0.016
-0.026
-0.035
-0.044
-0.05
-0.051
-0.05
-0.048
-0.047
-0.047
-0.046
-0.047
-0.039
-0.041
-0.032
-0.012
0.091
0.182
0.271
0.337
0.38
0.323
0.206
0.105
0.02
-0.05
-0.102
-0.087
-0.075
-0.068
-0.064
-0.064
-0.065
-0.064
-0.062
-0.06
-0.059
-0.056
-0.051
-0.045
-0.029
-0.011
0.006
0.022
0.039
0.049
0.062
0.073
0.082
0.088
0.093
0.094
0.092
0.09
0.086
0.079
0.072
0.066
0.051
0.034
0.017
-0.002
-0.02
-0.03
-0.04
-0.048
-0.055
-0.061
-0.065
-0.064
-0.062
-0.06
-0.059
-0.059
-0.058
-0.058
-0.058
-0.058
-0.056
-0.055
-0.055
-0.053
-0.051
-0.051
-0.051
-0.052
-0.051
-0.051
-0.05
-0.048
-0.047
-0.047
-0.047
-0.046
-0.045
-0.045
-0.043
-0.043
-0.043
-0.041
-0.03
-0.018
-0.004
0.008
0.02
0.024
0.024
0.021
0.016
0.008
-0.003
-0.012
-0.021
-0.029
-0.033
-0.036
-0.037
-0.035
-0.034
-0.033
-0.034
-0.034
-0.033
-0.032
-0.023
-0.003
0.028
0.07
0.125
0.184
0.254
0.297
0.312
0.302
0.267
0.198
0.114
0.049
-0.001
-0.038
-0.062
-0.055
-0.052
-0.051
-0.05
-0.049
-0.049
-0.049
-0.047
-0.045
-0.041
-0.034
-0.026
-0.017
0.001
0.019
0.036
0.053
0.071
0.079
0.089
0.097
0.101
0.103
0.104
0.102
0.099
0.094
0.088
0.078
0.067
0.057
0.035
0.014
-0.006
-0.026
-0.045
-0.05
-0.053
-0.055
-0.055
-0.055
-0.054
-0.054
-0.053
-0.053
-0.053
-0.053
-0.052
-0.051
-0.05
-0.049
-0.049
-0.049
-0.049
-0.048
-0.048
-0.048
-0.047
-0.047
-0.047
-0.045
-0.044
-0.043
-0.042
-0.042
-0.042
-0.041
-0.041
-0.041
-0.04
-0.038
-0.034
-0.027
-0.015
-0.002
0.01
0.019
0.026
0.027
0.021
0.014
0.005
-0.008
-0.024
-0.032
-0.039
-0.044
-0.046
-0.044
-0.044
-0.043
-0.042
-0.042
-0.043
-0.044
0.011
0.056
0.136
0.204
0.285
0.321
0.309
0.247
0.186
0.098
-0.011
-0.057
-0.079
-0.086
-0.081
-0.068
-0.058
-0.056
-0.057
-0.056
-0.056
-0.055
-0.055
-0.054
-0.046
-0.036
-0.025
-0.012
0.003
0.012
0.03
0.046
0.061
0.075
0.088
0.09
0.091
0.091
0.089
0.087
0.087
0.085
0.075
0.063
0.047
0.031
0.015
0.005
-0.012
-0.028
-0.043
-0.056
-0.066
-0.067
-0.067
-0.067
-0.067
-0.067
-0.065
-0.064
-0.063
-0.062
-0.062
-0.062
-0.061
-0.06
-0.059
-0.059
-0.059
-0.059
-0.057
-0.056
-0.055
-0.054
-0.055
-0.055
-0.055
-0.054
-0.055
-0.055
-0.057
-0.057
-0.057
-0.056
-0.051
-0.044
-0.038
-0.03
-0.02
-0.011
-0.003
0.004
0.009
0.01
0.01
0.006
-0.006
-0.018
-0.03
-0.041
-0.049
-0.048
-0.049
-0.049
-0.049
-0.049
-0.048
-0.047
-0.047
-0.048
-0.053
-0.055
-0.044
-0.022
0.059
0.154
0.256
0.346
0.413
0.404
0.319
0.209
0.091
-0.011
-0.093
-0.104
-0.098
-0.083
-0.072
-0.065
-0.06
-0.059
-0.059
-0.057
-0.057
-0.056
-0.053
-0.049
-0.035
-0.023
-0.009
0.006
0.023
0.03
0.047
0.062
0.074
0.084
0.094
0.095
0.095
0.094
0.091
0.089
0.086
0.083
0.066
0.051
0.033
0.016
-0.002
-0.006
-0.02
-0.032
-0.043
-0.051
-0.058
-0.057
-0.056
-0.056
-0.056
-0.056
-0.055
-0.054
-0.054
-0.052
-0.052
-0.052
-0.05
-0.049
-0.049
-0.047
-0.047
-0.047
-0.045
-0.044
-0.043
-0.041
-0.041
-0.041
-0.04
-0.04
-0.04
-0.039
-0.039
-0.04
-0.039
-0.038
-0.029
-0.02
-0.01
0.001
0.014
0.02
0.024
0.026
0.016
0.002
-0.012
-0.024
-0.035
-0.036
-0.034
-0.033
-0.032
-0.032
-0.031
-0.032
-0.036
-0.037
-0.028
-0.008
0.027
0.078
0.182
0.27
0.332
0.369
0.384
0.324
0.211
0.113
0.031
-0.035
-0.083
-0.069
-0.058
-0.051
-0.048
-0.049
-0.048
-0.048
-0.048
-0.047
-0.046
-0.046
-0.041
-0.035
-0.019
-0.002
0.015
0.031
0.049
0.058
0.072
0.083
0.09
0.097
0.104
0.104
0.102
0.099
0.093
0.086
0.079
0.073
0.057
0.041
0.022
0.003
-0.015
-0.024
-0.034
-0.042
-0.05
-0.057
-0.06
-0.061
-0.06
-0.059
-0.059
-0.061
-0.06
-0.06
-0.058
-0.057
-0.056
-0.056
-0.055
-0.055
-0.054
-0.054
-0.054
-0.055
-0.054
-0.054
-0.052
-0.05
-0.05
-0.051
-0.05
-0.05
-0.05
-0.048
-0.047
-0.048
-0.046
-0.044
-0.034
-0.023
-0.011
0
0.012
0.016
0.016
0.012
0.006
-0.003
-0.014
-0.022
-0.031
-0.038
-0.045
-0.049
-0.052
-0.052
-0.05
-0.049
-0.048
-0.048
-0.047
-0.047
-0.036
-0.013
0.021
0.066
0.124
0.182
0.245
0.282
0.292
0.277
0.237
0.167
0.092
0.032
-0.014
-0.048
-0.068
-0.067
-0.066
-0.066
-0.067
-0.068
-0.067
-0.066
-0.064
-0.061
-0.056
-0.05
-0.042
-0.034
-0.015
0.003
0.021
0.038
0.056
0.064
0.074
0.082
0.087
0.089
0.091
0.09
0.086
0.081
0.073
0.062
0.051
0.041
0.024
0.008
-0.009
-0.028
-0.046
-0.055
-0.062
-0.067
-0.071
-0.072
-0.071
-0.071
-0.069
-0.067
-0.065
-0.065
-0.064
-0.063
-0.062
-0.061
-0.059
-0.059
-0.058
-0.057
-0.057
-0.057
-0.057
-0.058
-0.058
-0.057
-0.057
-0.056
-0.055
-0.056
-0.055
-0.054
-0.053
-0.052
-0.05
-0.048
-0.044
-0.038
-0.025
-0.011
0.001
0.011
0.019
0.02
0.011
0.004
-0.006
-0.019
-0.033
-0.036
-0.041
-0.043
-0.045
-0.045
-0.046
-0.047
-0.048
-0.049
0.007
0.054
0.111
0.18
0.265
0.302
0.287
0.276
0.237
0.171
0.08
0.041
-0.007
-0.04
-0.06
-0.067
-0.06
-0.058
-0.058
-0.057
-0.057
-0.057
-0.057
-0.056
-0.046
-0.036
-0.022
-0.007
0.009
0.018
0.035
0.047
0.059
0.071
0.083
0.086
0.092
0.095
0.097
0.098
0.096
0.093
0.084
0.071
0.057
0.043
0.028
0.017
-0
-0.017
-0.031
-0.044
-0.055
-0.055
-0.054
-0.053
-0.051
-0.049
-0.049
-0.047
-0.048
-0.049
-0.049
-0.049
-0.049
-0.049
-0.049
-0.049
-0.048
-0.046
-0.046
-0.045
-0.044
-0.043
-0.043
-0.041
-0.041
-0.041
-0.042
-0.042
-0.041
-0.039
-0.039
-0.038
-0.034
-0.029
-0.021
-0.01
0.003
0.012
0.019
0.024
0.026
0.026
0.023
0.018
0.005
-0.007
-0.019
-0.028
-0.036
-0.036
-0.036
-0.037
-0.037
-0.036
-0.036
-0.035
-0.034
-0.037
-0.042
-0.042
-0.031
-0.008
0.074
0.171
0.274
0.363
0.425
0.412
0.322
0.207
0.09
-0.008
-0.087
-0.095
-0.088
-0.074
-0.063
-0.055
-0.052
-0.051
-0.052
-0.053
-0.054
-0.053
-0.051
-0.048
-0.037
-0.023
-0.008
0.009
0.026
0.037
0.051
0.063
0.074
0.085
0.094
0.096
0.095
0.093
0.089
0.086
0.083
0.079
0.064
0.047
0.029
0.012
-0.004
-0.012
-0.026
-0.038
-0.05
-0.059
-0.066
-0.065
-0.064
-0.063
-0.063
-0.063
-0.062
-0.063
-0.062
-0.062
-0.062
-0.061
-0.06
-0.061
-0.06
-0.06
-0.06
-0.058
-0.057
-0.056
-0.057
-0.057
-0.059
-0.059
-0.059
-0.058
-0.057
-0.056
-0.056
-0.055
-0.055
-0.054
-0.044
-0.034
-0.023
-0.01
0.003
0.005
0.006
0.007
0.005
0.001
-0.005
-0.01
-0.022
-0.031
-0.041
-0.047
-0.052
-0.052
-0.053
-0.053
-0.058
-0.057
-0.044
-0.019
0.018
0.07
0.17
0.253
0.311
0.346
0.355
0.295
0.182
0.086
0.005
-0.058
-0.103
-0.088
-0.078
-0.071
-0.069
-0.068
-0.067
-0.066
-0.066
-0.065
-0.063
-0.061
-0.055
-0.048
-0.033
-0.017
-0
0.018
0.036
0.046
0.058
0.068
0.075
0.082
0.088
0.088
0.086
0.083
0.078
0.073
0.067
0.059
0.043
0.025
0.006
-0.011
-0.027
-0.036
-0.046
-0.055
-0.062
-0.067
-0.069
-0.067
-0.067
-0.066
-0.066
-0.065
-0.063
-0.062
-0.061
-0.06
-0.06
-0.06
-0.059
-0.058
-0.058
-0.057
-0.056
-0.055
-0.053
-0.053
-0.052
-0.051
-0.05
-0.049
-0.048
-0.047
-0.047
-0.047
-0.048
-0.048
-0.046
-0.043
-0.032
-0.019
-0.006
0.007
0.02
0.023
0.021
0.018
0.011
0.002
-0.008
-0.016
-0.025
-0.032
-0.037
-0.04
-0.04
-0.04
-0.039
-0.038
-0.038
-0.037
-0.035
-0.034
-0.022
0.002
0.037
0.084
0.144
0.201
0.261
0.293
0.299
0.282
0.243
0.174
0.097
0.036
-0.01
-0.044
-0.062
-0.055
-0.053
-0.053
-0.053
-0.053
-0.051
-0.051
-0.049
-0.044
-0.039
-0.031
-0.021
-0.011
0.005
0.021
0.037
0.054
0.072
0.081
0.09
0.096
0.099
0.102
0.105
0.104
0.1
0.094
0.085
0.076
0.067
0.058
0.042
0.024
0.006
-0.012
-0.027
-0.037
-0.044
-0.05
-0.053
-0.055
-0.055
-0.054
-0.053
-0.053
-0.053
-0.053
-0.051
-0.05
-0.05
-0.049
-0.049
-0.049
-0.049
-0.047
-0.046
-0.047
-0.048
-0.048
-0.048
-0.048
-0.047
-0.047
-0.046
-0.046
-0.046
-0.045
-0.045
-0.044
-0.043
-0.041
-0.035
-0.028
-0.014
-0.001
0.009
0.018
0.027
0.027
0.02
0.012
-0.003
-0.018
-0.031
-0.039
-0.043
-0.042
-0.041
-0.044
0.015
0.06
0.118
0.189
0.276
0.309
0.29
0.272
0.227
0.155
0.061
0.021
-0.024
-0.055
-0.074
-0.079
-0.069
-0.067
-0.067
-0.066
-0.065
-0.066
-0.066
-0.065
-0.056
-0.049
-0.04
-0.029
-0.015
-0.009
0.011
0.028
0.044
0.058
0.072
0.075
0.078
0.081
0.082
0.082
0.079
0.078
0.066
0.052
0.037
0.022
0.004
-0.005
-0.022
-0.037
-0.051
-0.062
-0.072
-0.071
-0.07
-0.069
-0.069
-0.069
-0.07
-0.07
-0.069
-0.069
-0.068
-0.067
-0.066
-0.065
-0.065
-0.064
-0.064
-0.064
-0.064
-0.063
-0.062
-0.061
-0.059
-0.057
-0.057
-0.056
-0.056
-0.056
-0.055
-0.055
-0.055
-0.055
-0.05
-0.044
-0.035
-0.025
-0.014
-0.005
0.001
0.006
0.009
0.01
0.007
0.001
-0.012
-0.024
-0.035
-0.044
-0.051
-0.051
-0.05
-0.05
-0.049
-0.049
-0.048
-0.048
-0.048
-0.051
-0.054
-0.052
-0.039
-0.013
0.072
0.171
0.275
0.358
0.414
0.397
0.302
0.184
0.07
-0.024
-0.1
-0.105
-0.094
-0.081
-0.07
-0.063
-0.061
-0.06
-0.059
-0.06
-0.06
-0.059
-0.058
-0.054
-0.041
-0.026
-0.009
0.009
0.025
0.035
0.049
0.062
0.073
0.084
0.092
0.093
0.093
0.091
0.089
0.087
0.085
0.08
0.065
0.048
0.031
0.014
-0.002
-0.01
-0.023
-0.035
-0.045
-0.053
-0.059
-0.058
-0.059
-0.059
-0.058
-0.058
-0.058
-0.057
-0.056
-0.056
-0.054
-0.053
-0.053
-0.052
-0.052
-0.051
-0.05
-0.049
-0.048
-0.047
-0.046
-0.045
-0.043
-0.041
-0.04
-0.041
-0.039
-0.039
-0.039
-0.037
-0.037
-0.037
-0.025
-0.015
-0.003
0.011
0.025
0.026
0.029
0.029
0.016
0.003
-0.01
-0.022
-0.034
-0.035
-0.034
-0.034
-0.033
-0.032
-0.032
-0.032
-0.018
-0.016
-0.002
0.026
0.063
0.096
0.177
0.256
0.311
0.345
0.351
0.306
0.197
0.101
0.022
-0.038
-0.082
-0.069
-0.059
-0.052
-0.05
-0.049
-0.048
-0.048
-0.048
-0.047
-0.044
-0.04
-0.035
-0.027
-0.012
0.004
0.021
0.039
0.055
0.065
0.076
0.085
0.091
0.098
0.102
0.101
0.099
0.096
0.09
0.085
0.078
0.07
0.053
0.035
0.017
0.001
-0.016
-0.024
-0.034
-0.043
-0.049
-0.054
-0.057
-0.056
-0.056
-0.056
-0.056
-0.055
-0.055
-0.055
-0.054
-0.054
-0.054
-0.053
-0.053
-0.053
-0.052
-0.051
-0.051
-0.05
-0.049
-0.05
-0.049
-0.049
-0.049
-0.048
-0.048
-0.047
-0.047
-0.047
-0.047
-0.046
-0.045
-0.042
-0.031
-0.018
-0.005
0.009
0.02
0.023
0.02
0.014
0.006
-0.004
-0.015
-0.024
-0.033
-0.04
-0.045
-0.048
-0.049
-0.049
-0.048
-0.048
-0.047
-0.046
-0.045
-0.044
-0.031
-0.006
0.031
0.082
0.142
0.199
0.252
0.281
0.284
0.263
0.219
0.15
0.075
0.016
-0.029
-0.059
-0.075
-0.07
-0.068
-0.067
-0.067
-0.066
-0.065
-0.065
-0.06
-0.053
-0.045
-0.035
-0.023
-0.014
-0.002
0.012
0.025
0.039
0.053
0.06
0.068
0.074
0.078
0.081
0.084
0.083
0.078
0.072
0.062
0.053
0.042
0.032
0.015
-0.001
-0.02
-0.037
-0.053
-0.061
-0.068
-0.072
-0.074
-0.073
-0.072
-0.071
-0.071
-0.071
-0.071
-0.07
-0.07
-0.07
-0.07
-0.069
-0.07
-0.069
-0.068
-0.068
-0.067
-0.065
-0.063
-0.061
-0.059
-0.059
-0.058
-0.057
-0.056
-0.055
-0.053
-0.052
-0.053
-0.053
-0.051
-0.048
-0.043
-0.036
-0.024
-0.011
0
0.01
0.008
0
-0.01
-0.023
-0.038
-0.04
-0.045
-0.048
-0.049
-0.049
-0.048
-0.048
-0.047
-0.045
0.016
0.065
0.127
0.201
0.286
0.319
0.323
0.301
0.253
0.18
0.083
0.016
-0.026
-0.054
-0.07
-0.071
-0.06
-0.061
-0.06
-0.059
-0.058
-0.056
-0.054
-0.054
-0.045
-0.037
-0.028
-0.016
-0.002
0.003
0.023
0.04
0.056
0.073
0.089
0.089
0.093
0.095
0.095
0.095
0.096
0.094
0.082
0.072
0.06
0.047
0.034
0.027
0.006
-0.01
-0.027
-0.042
-0.055
-0.055
-0.058
-0.059
-0.059
-0.058
-0.057
-0.056
-0.055
-0.054
-0.054
-0.054
-0.053
-0.053
-0.051
-0.05
-0.049
-0.048
-0.046
-0.047
-0.047
-0.047
-0.047
-0.047
-0.045
-0.044
-0.042
-0.041
-0.04
-0.04
-0.04
-0.039
-0.035
-0.028
-0.018
-0.009
0.003
0.011
0.018
0.024
0.028
0.027
0.024
0.019
0.006
-0.006
-0.016
-0.026
-0.034
-0.034
-0.036
-0.036
-0.035
-0.034
-0.034
-0.033
-0.034
-0.038
-0.043
-0.04
-0.025
0.002
0.089
0.192
0.294
0.372
0.424
0.401
0.301
0.181
0.072
-0.02
-0.092
-0.094
-0.083
-0.071
-0.06
-0.055
-0.054
-0.053
-0.052
-0.052
-0.051
-0.051
-0.049
-0.045
-0.03
-0.017
-0.001
0.015
0.031
0.038
0.052
0.066
0.08
0.09
0.097
0.099
0.097
0.094
0.092
0.089
0.084
0.079
0.064
0.048
0.033
0.017
-0
-0.008
-0.022
-0.035
-0.045
-0.054
-0.062
-0.062
-0.062
-0.062
-0.062
-0.062
-0.061
-0.061
-0.06
-0.06
-0.059
-0.059
-0.059
-0.058
-0.057
-0.057
-0.056
-0.057
-0.057
-0.057
-0.057
-0.056
-0.054
-0.054
-0.054
-0.053
-0.053
-0.053
-0.051
-0.05
-0.05
-0.049
-0.041
-0.032
-0.021
-0.01
-0
-0.001
-0.006
-0.013
-0.024
-0.034
-0.041
-0.046
-0.051
-0.051
-0.051
-0.051
-0.055
-0.05
-0.034
-0.008
0.03
0.084
0.162
0.239
0.293
0.322
0.323
0.277
0.176
0.083
0.009
-0.046
-0.088
-0.083
-0.074
-0.069
-0.068
-0.067
-0.068
-0.068
-0.065
-0.064
-0.061
-0.057
-0.051
-0.046
-0.024
-0.008
0.01
0.029
0.045
0.049
0.061
0.07
0.079
0.086
0.091
0.091
0.088
0.082
0.078
0.072
0.064
0.057
0.041
0.024
0.006
-0.011
-0.028
-0.037
-0.047
-0.056
-0.061
-0.065
-0.068
-0.067
-0.065
-0.064
-0.063
-0.063
-0.063
-0.063
-0.062
-0.061
-0.06
-0.058
-0.058
-0.057
-0.056
-0.057
-0.056
-0.056
-0.056
-0.055
-0.053
-0.052
-0.051
-0.05
-0.05
-0.049
-0.048
-0.047
-0.045
-0.045
-0.044
-0.041
-0.03
-0.018
-0.004
0.01
0.021
0.024
0.021
0.015
0.007
-0.002
-0.014
-0.023
-0.03
-0.035
-0.039
-0.041
-0.042
-0.041
-0.04
-0.039
-0.038
-0.036
-0.035
-0.034
-0.017
0.013
0.054
0.108
0.171
0.226
0.271
0.291
0.288
0.261
0.209
0.143
0.074
0.02
-0.021
-0.046
-0.057
-0.052
-0.05
-0.048
-0.047
-0.047
-0.047
-0.047
-0.045
-0.041
-0.035
-0.027
-0.018
-0.009
0.008
0.025
0.043
0.061
0.078
0.085
0.092
0.097
0.102
0.105
0.107
0.106
0.101
0.093
0.085
0.075
0.064
0.053
0.034
0.016
-0.002
-0.019
-0.035
-0.043
-0.048
-0.052
-0.053
-0.052
-0.052
-0.052
-0.052
-0.051
-0.05
-0.049
-0.048
-0.048
-0.047
-0.046
-0.045
-0.044
-0.044
-0.043
-0.043
-0.043
-0.043
-0.042
-0.041
-0.042
-0.043
-0.043
-0.043
-0.043
-0.043
-0.043
-0.042
-0.038
-0.023
-0.008
0.007
0.02
0.03
0.029
0.02
0.01
-0.002
-0.014
-0.027
-0.033
-0.037
-0.039
-0.04
-0.039
-0.04
-0.041
-0.041
-0.042
-0.044
-0.047
-0.008
0.043
0.105
0.182
0.271
0.326
0.325
0.299
0.247
0.171
0.072
0.007
-0.035
-0.063
-0.078
-0.077
-0.066
-0.065
-0.064
-0.064
-0.064
-0.063
-0.062
-0.062
-0.053
-0.045
-0.036
-0.024
-0.012
-0.006
0.013
0.03
0.047
0.063
0.077
0.078
0.081
0.083
0.083
0.085
0.085
0.083
0.071
0.062
0.049
0.036
0.021
0.014
-0.006
-0.023
-0.039
-0.053
-0.066
-0.067
-0.069
-0.07
-0.07
-0.07
-0.07
-0.069
-0.068
-0.066
-0.065
-0.063
-0.062
-0.06
-0.061
-0.06
-0.061
-0.061
-0.061
-0.06
-0.06
-0.058
-0.058
-0.057
-0.057
-0.057
-0.058
-0.058
-0.058
-0.058
-0.058
-0.057
-0.052
-0.046
-0.04
-0.032
-0.023
-0.018
-0.008
0.001
0.008
0.012
0.014
0.011
-0.003
-0.017
-0.029
-0.041
-0.051
-0.051
-0.051
-0.052
-0.052
-0.051
-0.051
-0.05
-0.05
-0.053
-0.057
-0.052
-0.034
-0.003
0.087
0.191
0.288
0.362
0.409
0.384
0.28
0.161
0.055
-0.034
-0.104
-0.103
-0.09
-0.077
-0.068
-0.064
-0.062
-0.061
-0.062
-0.061
-0.06
-0.058
-0.055
-0.05
-0.038
-0.024
-0.009
0.007
0.025
0.035
0.049
0.062
0.074
0.083
0.091
0.093
0.092
0.092
0.091
0.088
0.083
0.078
0.062
0.046
0.029
0.013
-0.004
-0.012
-0.026
-0.037
-0.047
-0.056
-0.061
-0.06
-0.059
-0.058
-0.057
-0.056
-0.054
-0.052
-0.051
-0.05
-0.05
-0.049
-0.049
-0.048
-0.048
-0.048
-0.047
-0.047
-0.046
-0.045
-0.044
-0.043
-0.041
-0.041
-0.04
-0.039
-0.039
-0.039
-0.037
-0.038
-0.025
-0.014
-0.002
0.011
0.025
0.026
0.027
0.026
0.024
0.017
0.009
0.003
-0.009
-0.017
-0.023
-0.029
-0.033
-0.032
-0.032
-0.032
-0.03
-0.03
-0.029
-0.028
-0.01
-0.004
0.014
0.042
0.081
0.114
0.188
0.262
0.312
0.336
0.332
0.286
0.185
0.094
0.023
-0.031
-0.071
-0.067
-0.059
-0.054
-0.051
-0.05
-0.05
-0.049
-0.047
-0.046
-0.043
-0.039
-0.034
-0.029
-0.007
0.01
0.029
0.045
0.062
0.065
0.077
0.086
0.095
0.101
0.104
0.101
0.098
0.094
0.091
0.085
0.076
0.068
0.047
0.029
0.013
-0.003
-0.021
-0.027
-0.037
-0.046
-0.051
-0.056
-0.058
-0.058
-0.057
-0.056
-0.054
-0.054
-0.053
-0.052
-0.053
-0.053
-0.052
-0.053
-0.054
-0.054
-0.054
-0.053
-0.052
-0.052
-0.051
-0.051
-0.051
-0.051
-0.049
-0.049
-0.049
-0.049
-0.049
-0.049
-0.048
-0.049
-0.047
-0.044
-0.032
-0.019
-0.004
0.009
0.02
0.021
0.017
0.01
0.003
-0.008
-0.02
-0.03
-0.037
-0.044
-0.047
-0.049
-0.049
-0.049
-0.048
-0.048
-0.047
-0.048
-0.049
-0.049
-0.031
-0.002
0.043
0.097
0.161
0.217
0.262
0.281
0.277
0.248
0.193
0.126
0.056
0.001
-0.037
-0.062
-0.074
-0.069
-0.068
-0.068
-0.067
-0.066
-0.066
-0.065
-0.063
-0.058
-0.052
-0.044
-0.035
-0.026
-0.009
0.007
0.025
0.042
0.057
0.064
0.072
0.078
0.083
0.085
0.086
0.084
0.079
0.072
0.064
0.054
0.042
0.031
0.013
-0.004
-0.019
-0.036
-0.052
-0.059
-0.066
-0.07
-0.071
-0.071
-0.071
-0.071
-0.07
-0.07
-0.069
-0.069
-0.068
-0.067
-0.067
-0.067
-0.066
-0.067
-0.067
-0.066
-0.064
-0.062
-0.059
-0.058
-0.057
-0.056
-0.055
-0.055
-0.053
-0.052
-0.049
-0.046
-0.041
-0.034
-0.022
-0.01
0.003
0.012
0.019
0.019
0.012
0.002
-0.011
-0.024
-0.037
-0.042
-0.046
-0.045
-0.044
-0.043
-0.043
-0.043
-0.045
-0.049
-0.008
0.045
0.11
0.189
0.28
0.334
0.329
0.298
0.243
0.164
0.06
-0.003
-0.041
-0.067
-0.078
-0.075
-0.062
-0.06
-0.059
-0.057
-0.055
-0.054
-0.055
-0.055
-0.049
-0.041
-0.031
-0.019
-0.007
0.002
0.019
0.036
0.054
0.071
0.085
0.09
0.094
0.096
0.097
0.098
0.098
0.094
0.085
0.074
0.062
0.049
0.034
0.023
0.002
-0.015
-0.032
-0.046
-0.059
-0.058
-0.059
-0.059
-0.057
-0.055
-0.055
-0.054
-0.054
-0.054
-0.054
-0.053
-0.052
-0.051
-0.05
-0.049
-0.048
-0.047
-0.046
-0.046
-0.046
-0.045
-0.046
-0.046
-0.046
-0.045
-0.045
-0.045
-0.044
-0.043
-0.043
-0.043
-0.036
-0.031
-0.026
-0.018
-0.008
-0.003
0.007
0.015
0.021
0.025
0.027
0.025
0.011
-0.001
-0.014
-0.025
-0.036
-0.035
-0.036
-0.036
-0.037
-0.038
-0.038
-0.037
-0.038
-0.038
-0.039
-0.043
-0.046
-0.038
0.051
0.154
0.26
0.353
0.42
0.39
0.282
0.164
0.061
-0.024
-0.093
-0.091
-0.078
-0.067
-0.059
-0.055
-0.054
-0.053
-0.053
-0.052
-0.051
-0.05
-0.048
-0.042
-0.029
-0.014
0.002
0.018
0.036
0.045
0.059
0.072
0.083
0.09
0.096
0.097
0.095
0.095
0.093
0.089
0.084
0.077
0.057
0.041
0.024
0.007
-0.01
-0.016
-0.03
-0.042
-0.052
-0.059
-0.065
-0.065
-0.065
-0.064
-0.064
-0.064
-0.064
-0.063
-0.063
-0.063
-0.063
-0.062
-0.061
-0.06
-0.06
-0.059
-0.06
-0.06
-0.06
-0.06
-0.06
-0.06
-0.06
-0.06
-0.059
-0.058
-0.057
-0.056
-0.048
-0.037
-0.025
-0.011
0.003
0.01
0.011
0.009
0.006
-0.001
-0.01
-0.016
-0.028
-0.039
-0.046
-0.052
-0.056
-0.056
-0.056
-0.056
-0.056
-0.056
-0.055
-0.053
-0.056
-0.047
-0.027
0.004
0.046
0.104
0.195
0.264
0.31
0.328
0.321
0.254
0.15
0.063
-0.005
-0.055
-0.092
-0.08
-0.071
-0.067
-0.066
-0.065
-0.065
-0.065
-0.065
-0.065
-0.062
-0.058
-0.05
-0.04
-0.019
-0.001
0.017
0.034
0.05
0.055
0.067
0.075
0.082
0.088
0.092
0.09
0.086
0.082
0.077
0.071
0.063
0.056
0.035
0.017
-0
-0.016
-0.033
-0.039
-0.049
-0.056
-0.063
-0.066
-0.068
-0.067
-0.067
-0.066
-0.065
-0.064
-0.063
-0.063
-0.06
-0.059
-0.058
-0.056
-0.055
-0.056
-0.056
-0.056
-0.055
-0.054
-0.052
-0.051
-0.051
-0.05
-0.05
-0.05
-0.049
-0.048
-0.047
-0.047
-0.045
-0.045
-0.042
-0.039
-0.027
-0.015
-0.001
0.011
0.022
0.024
0.021
0.015
0.006
-0.005
-0.016
-0.023
-0.03
-0.034
-0.037
-0.038
-0.038
-0.038
-0.038
-0.038
-0.037
-0.038
-0.037
-0.037
-0.017
0.015
0.059
0.114
0.181
0.237
0.279
0.296
0.29
0.259
0.203
0.135
0.067
0.015
-0.023
-0.047
-0.057
-0.054
-0.053
-0.052
-0.052
-0.051
-0.049
-0.049
-0.046
-0.042
-0.035
-0.027
-0.017
-0.008
0.009
0.025
0.042
0.059
0.075
0.082
0.089
0.095
0.1
0.103
0.104
0.102
0.097
0.089
0.081
0.072
0.061
0.049
0.031
0.013
-0.004
-0.021
-0.036
-0.044
-0.049
-0.053
-0.054
-0.053
-0.052
-0.052
-0.052
-0.052
-0.053
-0.054
-0.053
-0.053
-0.053
-0.052
-0.05
-0.05
-0.05
-0.049
-0.049
-0.049
-0.047
-0.046
-0.045
-0.044
-0.043
-0.043
-0.041
-0.038
-0.032
-0.026
-0.017
-0.007
0.003
0.011
0.019
0.024
0.018
0.008
-0.004
-0.018
-0.032
-0.036
-0.04
-0.042
-0.043
-0.044
-0.045
-0.045
-0.045
-0.044
-0.043
-0.043
-0.042
-0.047
-0.003
0.052
0.119
0.199
0.292
0.346
0.336
0.3
0.241
0.158
0.051
-0.012
-0.048
-0.072
-0.081
-0.076
-0.063
-0.062
-0.061
-0.062
-0.061
-0.06
-0.059
-0.059
-0.053
-0.046
-0.036
-0.025
-0.011
-0.002
0.015
0.032
0.048
0.063
0.076
0.079
0.082
0.082
0.084
0.084
0.084
0.081
0.073
0.063
0.052
0.039
0.024
0.014
-0.003
-0.02
-0.035
-0.049
-0.061
-0.065
-0.066
-0.067
-0.067
-0.067
-0.067
-0.067
-0.066
-0.066
-0.065
-0.065
-0.065
-0.065
-0.065
-0.065
-0.064
-0.063
-0.062
-0.061
-0.059
-0.059
-0.057
-0.056
-0.056
-0.056
-0.055
-0.056
-0.056
-0.056
-0.057
-0.056
-0.049
-0.044
-0.036
-0.028
-0.018
-0.014
-0.004
0.003
0.01
0.014
0.014
0.01
-0.002
-0.015
-0.027
-0.037
-0.047
-0.048
-0.049
-0.049
-0.048
-0.049
-0.049
-0.049
-0.051
-0.051
-0.051
-0.054
-0.057
-0.046
0.046
0.127
0.225
0.33
0.42
0.409
0.322
0.234
0.123
0.007
-0.092
-0.093
-0.102
-0.096
-0.083
-0.071
-0.05
-0.035
-0.018
0.003
0.026
0.036
0.051
0.065
0.074
0.081
0.087
0.089
0.089
0.089
0.087
0.083
0.077
0.07
0.055
0.039
0.022
0.005
-0.012
-0.021
-0.033
-0.043
-0.054
-0.061
-0.067
-0.066
-0.064
-0.062
-0.061
-0.061
-0.061
-0.059
-0.059
-0.058
-0.057
-0.057
-0.057
-0.055
-0.053
-0.051
-0.05
-0.05
-0.05
-0.05
-0.048
-0.046
-0.045
-0.044
-0.045
-0.046
-0.045
-0.044
-0.034
-0.022
-0.01
0.003
0.016
0.023
0.026
0.026
0.022
0.014
0.005
-0.005
-0.017
-0.025
-0.033
-0.039
-0.043
-0.043
-0.041
-0.039
-0.038
-0.038
-0.037
-0.037
-0.038
-0.028
-0.008
0.024
0.068
0.128
0.218
0.286
0.326
0.338
0.326
0.257
0.156
0.073
0.007
-0.043
-0.078
-0.067
-0.058
-0.052
-0.052
-0.053
-0.053
-0.052
-0.053
-0.051
-0.048
-0.045
-0.038
-0.03
-0.015
0.003
0.02
0.037
0.054
0.064
0.075
0.085
0.092
0.096
0.099
0.099
0.092
0.089
0.084
0.076
0.066
0.061
0.039
0.023
0.005
-0.012
-0.03
-0.034
-0.045
-0.051
-0.057
-0.06
-0.062
-0.061
-0.062
-0.061
-0.061
-0.06
-0.059
-0.058
-0.058
-0.057
-0.058
-0.059
-0.059
-0.057
-0.058
-0.056
-0.056
-0.054
-0.053
-0.052
-0.052
-0.051
-0.052
-0.052
-0.052
-0.051
-0.052
-0.051
-0.052
-0.052
-0.049
-0.044
-0.032
-0.018
-0.008
-0.002
-0.001
-0.011
-0.022
-0.03
-0.038
-0.042
-0.045
-0.047
-0.047
-0.047
-0.047
-0.045
-0.046
-0.047
-0.047
-0.048
-0.026
0.009
0.054
0.109
0.177
0.234
0.272
0.287
0.276
0.239
0.176
0.108
0.041
-0.007
-0.042
-0.064
-0.071
-0.067
-0.066
-0.064
-0.064
-0.066
-0.066
-0.065
-0.062
-0.055
-0.047
-0.039
-0.029
-0.019
-0.003
0.016
0.033
0.048
0.064
0.069
0.075
0.081
0.084
0.085
0.086
0.085
0.079
0.073
0.064
0.053
0.04
0.029
0.012
-0.004
-0.021
-0.038
-0.053
-0.059
-0.066
-0.068
-0.068
-0.068
-0.068
-0.067
-0.067
-0.067
-0.066
-0.064
-0.064
-0.065
-0.065
-0.066
-0.066
-0.065
-0.062
-0.061
-0.06
-0.058
-0.057
-0.058
-0.057
-0.056
-0.055
-0.052
-0.038
-0.024
-0.011
0.001
0.012
0.012
0.005
-0.004
-0.015
-0.027
-0.039
-0.044
-0.048
-0.049
-0.049
-0.05
-0.049
-0.048
-0.048
-0.047
-0.047
-0.048
-0.049
-0.054
-0.008
0.052
0.123
0.204
0.299
0.353
0.34
0.302
0.241
0.153
0.043
-0.017
-0.053
-0.073
-0.08
-0.075
-0.062
-0.061
-0.06
-0.058
-0.056
-0.057
-0.058
-0.058
-0.052
-0.042
-0.031
-0.018
-0.004
0.005
0.022
0.041
0.059
0.074
0.087
0.09
0.093
0.095
0.097
0.098
0.097
0.094
0.085
0.075
0.064
0.049
0.034
0.023
0.005
-0.011
-0.025
-0.039
-0.052
-0.055
-0.057
-0.057
-0.055
-0.053
-0.051
-0.05
-0.049
-0.048
-0.048
-0.049
-0.049
-0.047
-0.048
-0.047
-0.046
-0.047
-0.048
-0.047
-0.046
-0.046
-0.044
-0.044
-0.043
-0.043
-0.042
-0.041
-0.039
-0.04
-0.04
-0.04
-0.038
-0.033
-0.026
-0.018
-0.009
0
0.011
0.019
0.026
0.029
0.028
0.025
0.01
-0.002
-0.014
-0.027
-0.039
-0.039
-0.041
-0.04
-0.039
-0.039
-0.038
-0.038
-0.039
-0.039
-0.039
-0.045
-0.046
-0.032
0.061
0.145
0.245
0.347
0.431
0.416
0.351
0.26
0.155
0.056
-0.031
-0.052
-0.058
-0.058
-0.058
-0.057
-0.056
-0.056
-0.057
-0.056
-0.042
-0.03
-0.015
0.001
0.017
0.022
0.039
0.054
0.069
0.082
0.092
0.091
0.091
0.091
0.09
0.089
0.085
0.082
0.065
0.046
0.027
0.007
-0.013
-0.022
-0.033
-0.043
-0.052
-0.061
-0.067
-0.067
-0.067
-0.067
-0.067
-0.065
-0.064
-0.063
-0.062
-0.062
-0.063
-0.063
-0.064
-0.064
-0.064
-0.063
-0.063
-0.061
-0.06
-0.059
-0.059
-0.059
-0.058
-0.057
-0.055
-0.055
-0.056
-0.056
-0.056
-0.055
-0.044
-0.033
-0.022
-0.009
0.004
0.01
0.012
0.011
0.005
-0.003
-0.013
-0.022
-0.032
-0.04
-0.047
-0.053
-0.057
-0.056
-0.054
-0.053
-0.054
-0.054
-0.053
-0.053
-0.052
-0.04
-0.017
0.017
0.063
0.123
0.21
0.272
0.307
0.315
0.298
0.228
0.13
0.051
-0.01
-0.057
-0.09
-0.079
-0.071
-0.067
-0.067
-0.066
-0.066
-0.066
-0.065
-0.063
-0.061
-0.056
-0.048
-0.039
-0.022
-0.005
0.011
0.027
0.043
0.054
0.065
0.075
0.081
0.085
0.087
0.088
0.085
0.082
0.077
0.069
0.059
0.051
0.035
0.018
-0.001
-0.018
-0.036
-0.045
-0.054
-0.06
-0.066
-0.07
-0.071
-0.07
-0.068
-0.067
-0.068
-0.067
-0.066
-0.065
-0.064
-0.062
-0.062
-0.061
-0.06
-0.059
-0.059
-0.057
-0.058
-0.057
-0.056
-0.055
-0.055
-0.053
-0.053
-0.051
-0.051
-0.05
-0.05
-0.048
-0.049
-0.047
-0.044
-0.039
-0.027
-0.014
-0.003
0.008
0.018
0.021
0.013
0.009
0.001
-0.009
-0.021
-0.024
-0.032
-0.035
-0.039
-0.04
-0.039
-0.038
-0.036
-0.035
-0.035
-0.036
-0.036
-0.037
0.009
0.047
0.093
0.151
0.245
0.28
0.314
0.326
0.311
0.243
0.176
0.107
0.044
-0.001
-0.034
-0.053
-0.058
-0.055
-0.053
-0.05
-0.049
-0.049
-0.05
-0.049
-0.046
-0.04
-0.033
-0.025
-0.014
-0.004
0.013
0.032
0.049
0.065
0.081
0.088
0.095
0.101
0.103
0.103
0.102
0.099
0.093
0.087
0.078
0.067
0.055
0.044
0.019
-0.003
-0.023
-0.043
-0.059
-0.059
-0.057
-0.054
-0.052
-0.051
-0.051
-0.052
-0.053
-0.053
-0.053
-0.052
-0.052
-0.052
-0.051
-0.05
-0.05
-0.047
-0.047
-0.047
-0.046
-0.041
-0.036
-0.028
-0.014
-0.001
0.008
0.015
0.021
0.02
0.011
0.002
-0.01
-0.023
-0.036
-0.041
-0.044
-0.043
-0.042
-0.043
-0.041
-0.041
-0.041
-0.039
-0.039
-0.041
-0.044
-0.049
-0.003
0.057
0.127
0.209
0.306
0.359
0.341
0.3
0.234
0.141
0.027
-0.032
-0.065
-0.083
-0.088
-0.081
-0.067
-0.065
-0.066
-0.065
-0.063
-0.063
-0.062
-0.06
-0.052
-0.043
-0.033
-0.022
-0.009
-0
0.016
0.033
0.049
0.062
0.074
0.078
0.08
0.083
0.085
0.084
0.083
0.08
0.07
0.06
0.048
0.033
0.017
0.008
-0.009
-0.024
-0.038
-0.053
-0.066
-0.07
-0.071
-0.071
-0.071
-0.072
-0.072
-0.072
-0.072
-0.071
-0.07
-0.071
-0.071
-0.07
-0.069
-0.067
-0.066
-0.066
-0.066
-0.066
-0.065
-0.063
-0.062
-0.062
-0.061
-0.06
-0.06
-0.058
-0.056
-0.057
-0.057
-0.057
-0.054
-0.048
-0.041
-0.035
-0.025
-0.017
-0.007
0.002
0.009
0.012
0.012
0.008
-0.005
-0.017
-0.029
-0.041
-0.05
-0.053
-0.053
-0.051
-0.05
-0.05
-0.049
-0.049
-0.049
-0.049
-0.051
-0.057
-0.056
-0.044
0.051
0.156
0.257
0.339
0.398
0.358
0.244
0.151
0.056
-0.032
-0.101
-0.096
-0.101
-0.092
-0.078
-0.069
-0.063
-0.062
-0.06
-0.058
-0.056
-0.055
-0.054
-0.052
-0.038
-0.024
-0.009
0.006
0.022
0.027
0.044
0.059
0.073
0.084
0.093
0.093
0.092
0.092
0.092
0.09
0.087
0.083
0.067
0.054
0.04
0.024
0.006
-0
-0.016
-0.03
-0.041
-0.05
-0.058
-0.058
-0.057
-0.056
-0.055
-0.053
-0.052
-0.052
-0.053
-0.053
-0.053
-0.053
-0.053
-0.052
-0.051
-0.049
-0.048
-0.046
-0.045
-0.046
-0.046
-0.046
-0.045
-0.044
-0.042
-0.04
-0.029
-0.017
-0.004
0.009
0.022
0.027
0.028
0.026
0.021
0.013
0.003
-0.005
-0.015
-0.024
-0.03
-0.035
-0.038
-0.038
-0.037
-0.036
-0.037
-0.037
-0.036
-0.036
-0.034
-0.02
0.006
0.042
0.091
0.151
0.235
0.291
0.322
0.327
0.306
0.235
0.14
0.063
0.004
-0.041
-0.073
-0.062
-0.055
-0.052
-0.051
-0.05
-0.05
-0.051
-0.05
-0.048
-0.045
-0.041
-0.034
-0.025
-0.007
0.01
0.028
0.044
0.061
0.071
0.081
0.09
0.096
0.099
0.1
0.099
0.096
0.092
0.085
0.077
0.067
0.057
0.039
0.023
0.006
-0.012
-0.03
-0.039
-0.047
-0.053
-0.058
-0.061
-0.062
-0.061
-0.06
-0.059
-0.057
-0.056
-0.056
-0.055
-0.054
-0.053
-0.053
-0.053
-0.054
-0.054
-0.054
-0.054
-0.053
-0.053
-0.053
-0.053
-0.052
-0.051
-0.05
-0.05
-0.05
-0.05
-0.05
-0.05
-0.049
-0.048
-0.047
-0.042
-0.029
-0.015
-0.002
0.01
0.02
0.021
0.016
0.009
0
-0.011
-0.025
-0.033
-0.04
-0.046
-0.049
-0.05
-0.05
-0.049
-0.047
-0.046
-0.046
-0.045
-0.046
-0.046
0.002
0.04
0.089
0.149
0.245
0.278
0.28
0.285
0.265
0.194
0.122
0.082
0.022
-0.022
-0.051
-0.068
-0.07
-0.068
-0.068
-0.067
-0.067
-0.067
-0.067
-0.066
-0.061
-0.055
-0.049
-0.04
-0.029
-0.02
-0.003
0.014
0.031
0.046
0.06
0.067
0.073
0.079
0.082
0.084
0.085
0.083
0.077
0.071
0.062
0.051
0.037
0.026
0.008
-0.009
-0.027
-0.043
-0.059
-0.066
-0.069
-0.071
-0.072
-0.072
-0.072
-0.072
-0.072
-0.07
-0.069
-0.069
-0.069
-0.068
-0.068
-0.066
-0.064
-0.063
-0.063
-0.063
-0.063
-0.063
-0.062
-0.062
-0.06
-0.059
-0.058
-0.057
-0.057
-0.057
-0.057
-0.058
-0.057
-0.054
-0.05
-0.044
-0.037
-0.029
-0.016
-0.004
0.006
0.013
0.018
0.017
0.007
-0.003
-0.014
-0.026
-0.037
-0.041
-0.044
-0.044
-0.045
-0.046
-0.047
-0.046
-0.046
-0.046
-0.046
-0.046
-0.048
-0.053
-0.002
0.061
0.135
0.221
0.321
0.372
0.351
0.306
0.237
0.143
0.026
-0.031
-0.062
-0.078
-0.08
-0.07
-0.056
-0.055
-0.054
-0.054
-0.054
-0.054
-0.054
-0.053
-0.046
-0.035
-0.024
-0.011
0.004
0.013
0.03
0.048
0.063
0.077
0.09
0.094
0.096
0.099
0.1
0.1
0.099
0.096
0.086
0.076
0.064
0.05
0.034
0.023
0.005
-0.011
-0.026
-0.04
-0.053
-0.056
-0.057
-0.057
-0.057
-0.057
-0.057
-0.056
-0.055
-0.053
-0.052
-0.051
-0.051
-0.051
-0.05
-0.048
-0.046
-0.045
-0.044
-0.043
-0.043
-0.042
-0.041
-0.04
-0.039
-0.038
-0.038
-0.037
-0.036
-0.036
-0.036
-0.034
-0.031
-0.025
-0.018
-0.009
-0
0.007
0.016
0.023
0.029
0.032
0.032
0.027
0.013
-0
-0.013
-0.024
-0.035
-0.036
-0.036
-0.036
-0.035
-0.035
-0.034
-0.033
-0.032
-0.031
-0.033
-0.039
-0.037
-0.023
0.048
0.137
0.239
0.338
0.415
0.419
0.346
0.248
0.132
0.023
-0.069
-0.09
-0.093
-0.082
-0.07
-0.063
-0.058
-0.058
-0.059
-0.055
-0.054
-0.054
-0.053
-0.051
-0.038
-0.025
-0.01
0.004
0.02
0.027
0.043
0.06
0.075
0.086
0.094
0.093
0.091
0.087
0.07
0.055
0.038
0.02
0.002
-0.004
-0.019
-0.031
-0.043
-0.054
-0.062
-0.061
-0.062
-0.061
-0.06
-0.06
-0.061
-0.06
-0.061
-0.06
-0.059
-0.06
-0.059
-0.059
-0.059
-0.057
-0.055
-0.055
-0.054
-0.053
-0.053
-0.052
-0.051
-0.052
-0.053
-0.052
-0.053
-0.052
-0.051
-0.051
-0.051
-0.05
-0.041
-0.03
-0.017
-0.004
0.01
0.016
0.017
0.013
0.008
-0.001
-0.011
-0.02
-0.028
-0.037
-0.043
-0.048
-0.05
-0.049
-0.047
-0.048
-0.048
-0.048
-0.047
-0.046
-0.042
-0.027
-0.001
0.038
0.089
0.149
0.229
0.282
0.308
0.307
0.285
0.215
0.124
0.049
-0.009
-0.053
-0.082
-0.073
-0.066
-0.065
-0.065
-0.065
-0.064
-0.064
-0.062
-0.06
-0.057
-0.051
-0.042
-0.032
-0.015
0.001
0.017
0.032
0.05
0.06
0.072
0.081
0.087
0.09
0.092
0.092
0.089
0.084
0.077
0.068
0.059
0.051
0.035
0.017
-0.002
-0.02
-0.038
-0.047
-0.054
-0.06
-0.064
-0.068
-0.068
-0.068
-0.066
-0.065
-0.064
-0.063
-0.061
-0.06
-0.058
-0.059
-0.059
-0.059
-0.058
-0.058
-0.056
-0.056
-0.057
-0.057
-0.056
-0.056
-0.054
-0.054
-0.053
-0.052
-0.051
-0.05
-0.048
-0.048
-0.049
-0.047
-0.043
-0.037
-0.022
-0.009
0.003
0.013
0.022
0.023
0.019
0.011
0.002
-0.01
-0.022
-0.028
-0.032
-0.035
-0.038
-0.039
-0.04
-0.039
-0.037
-0.036
-0.036
-0.036
-0.036
-0.036
0.014
0.053
0.103
0.164
0.239
0.276
0.275
0.277
0.253
0.203
0.127
0.088
0.033
-0.008
-0.036
-0.05
-0.05
-0.049
-0.049
-0.048
-0.049
-0.049
-0.049
-0.047
-0.04
-0.033
-0.027
-0.017
-0.005
0.003
0.023
0.041
0.057
0.072
0.086
0.09
0.095
0.1
0.102
0.102
0.102
0.102
0.097
0.09
0.079
0.067
0.053
0.042
0.026
0.01
-0.006
-0.023
-0.038
-0.046
-0.049
-0.052
-0.053
-0.054
-0.054
-0.054
-0.052
-0.051
-0.051
-0.05
-0.05
-0.049
-0.049
-0.048
-0.048
-0.048
-0.049
-0.048
-0.048
-0.048
-0.047
-0.046
-0.045
-0.044
-0.045
-0.045
-0.045
-0.045
-0.044
-0.041
-0.039
-0.035
-0.028
-0.021
-0.007
0.006
0.015
0.021
0.026
0.025
0.016
0.005
-0.007
-0.021
-0.034
-0.038
-0.04
-0.041
-0.042
-0.043
-0.044
-0.044
-0.043
-0.041
-0.041
-0.042
-0.046
-0.051
0.001
0.065
0.139
0.227
0.328
0.377
0.353
0.305
0.231
0.131
0.013
-0.042
-0.07
-0.084
-0.086
-0.075
-0.063
-0.063
-0.062
-0.06
-0.06
-0.059
-0.059
-0.059
-0.052
-0.042
-0.032
-0.02
-0.005
0.004
0.022
0.041
0.056
0.07
0.082
0.084
0.086
0.088
0.089
0.088
0.086
0.083
0.073
0.062
0.047
0.031
0.015
0.004
-0.012
-0.026
-0.041
-0.054
-0.066
-0.069
-0.071
-0.07
-0.069
-0.068
-0.068
-0.066
-0.064
-0.064
-0.064
-0.064
-0.062
-0.062
-0.061
-0.059
-0.059
-0.06
-0.059
-0.059
-0.058
-0.057
-0.057
-0.058
-0.058
-0.057
-0.056
-0.055
-0.054
-0.054
-0.054
-0.054
-0.05
-0.044
-0.037
-0.029
-0.018
-0.01
-0.002
0.005
0.009
0.01
0.006
-0.001
-0.012
-0.023
-0.034
-0.043
-0.049
-0.05
-0.05
-0.049
-0.049
-0.05
-0.049
-0.049
-0.047
-0.046
-0.049
-0.053
-0.048
-0.031
0.044
0.137
0.239
0.334
0.406
0.407
0.33
0.23
0.115
0.009
-0.08
-0.099
-0.099
-0.085
-0.073
-0.065
-0.06
-0.06
-0.059
-0.056
-0.055
-0.056
-0.055
-0.053
-0.042
-0.028
-0.013
0.002
0.018
0.029
0.045
0.061
0.074
0.084
0.091
0.093
0.091
0.089
0.088
0.085
0.07
0.057
0.03
0.004
-0.022
-0.039
-0.054
-0.054
-0.056
-0.055
-0.055
-0.055
-0.054
-0.053
-0.053
-0.051
-0.05
-0.051
-0.05
-0.049
-0.049
-0.047
-0.046
-0.047
-0.046
-0.045
-0.046
-0.045
-0.044
-0.045
-0.045
-0.043
-0.044
-0.042
-0.041
-0.041
-0.04
-0.039
-0.029
-0.019
-0.008
0.003
0.016
0.019
0.02
0.023
0.022
0.017
0.011
0.007
-0.007
-0.016
-0.023
-0.031
-0.037
-0.036
-0.037
-0.036
-0.034
-0.032
-0.029
-0.028
-0.022
-0.006
0.022
0.06
0.114
0.173
0.25
0.298
0.319
0.315
0.288
0.218
0.13
0.059
0.004
-0.038
-0.064
-0.054
-0.049
-0.047
-0.047
-0.048
-0.047
-0.046
-0.045
-0.043
-0.039
-0.033
-0.025
-0.015
0.001
0.017
0.032
0.047
0.064
0.074
0.086
0.093
0.099
0.101
0.104
0.103
0.1
0.095
0.088
0.079
0.069
0.06
0.043
0.024
0.007
-0.012
-0.028
-0.037
-0.044
-0.051
-0.056
-0.059
-0.058
-0.058
-0.057
-0.057
-0.058
-0.059
-0.059
-0.058
-0.056
-0.055
-0.055
-0.055
-0.055
-0.055
-0.055
-0.056
-0.056
-0.056
-0.055
-0.054
-0.052
-0.051
-0.051
-0.05
-0.048
-0.047
-0.045
-0.045
-0.045
-0.044
-0.041
-0.035
-0.022
-0.009
0.001
0.01
0.019
0.019
0.015
0.007
-0.003
-0.015
-0.029
-0.036
-0.042
-0.047
-0.05
-0.049
-0.049
-0.048
-0.046
-0.046
-0.046
-0.046
-0.045
-0.045
-0.015
0.025
0.076
0.14
0.217
0.275
0.299
0.296
0.267
0.212
0.132
0.063
0.01
-0.029
-0.056
-0.069
-0.067
-0.065
-0.064
-0.064
-0.064
-0.064
-0.063
-0.062
-0.056
-0.05
-0.044
-0.035
-0.023
-0.013
0.007
0.024
0.039
0.054
0.068
0.072
0.078
0.082
0.084
0.085
0.086
0.085
0.079
0.071
0.059
0.046
0.022
-0
-0.021
-0.04
-0.057
-0.063
-0.068
-0.07
-0.072
-0.071
-0.071
-0.069
-0.068
-0.067
-0.066
-0.065
-0.065
-0.064
-0.061
-0.06
-0.06
-0.059
-0.058
-0.058
-0.056
-0.055
-0.055
-0.055
-0.053
-0.052
-0.051
-0.051
-0.051
-0.052
-0.052
-0.051
-0.049
-0.046
-0.043
-0.039
-0.032
-0.024
-0.01
0.001
0.01
0.016
0.02
0.018
0.009
-0.002
-0.015
-0.028
-0.04
-0.044
-0.044
-0.044
-0.044
-0.044
-0.043
-0.043
-0.041
-0.041
-0.043
-0.045
-0.05
-0.054
0.002
0.069
0.145
0.235
0.338
0.384
0.356
0.304
0.226
0.121
0.002
-0.049
-0.073
-0.083
-0.081
-0.068
-0.056
-0.056
-0.054
-0.053
-0.053
-0.052
-0.05
-0.049
-0.04
-0.029
-0.017
-0.005
0.009
0.017
0.035
0.052
0.067
0.08
0.093
0.094
0.098
0.101
0.101
0.099
0.098
0.094
0.084
0.074
0.06
0.044
0.027
0.016
-0.001
-0.016
-0.031
-0.044
-0.056
-0.058
-0.058
-0.056
-0.056
-0.056
-0.054
-0.053
-0.051
-0.049
-0.05
-0.051
-0.051
-0.051
-0.049
-0.047
-0.046
-0.046
-0.045
-0.045
-0.045
-0.044
-0.044
-0.044
-0.044
-0.042
-0.041
-0.04
-0.04
-0.039
-0.039
-0.038
-0.034
-0.027
-0.021
-0.014
-0.004
0.004
0.013
0.021
0.026
0.028
0.026
0.021
0.009
-0.002
-0.014
-0.026
-0.035
-0.036
-0.037
-0.037
-0.038
-0.038
-0.038
-0.037
-0.036
-0.036
-0.041
-0.045
-0.038
-0.02
0.059
0.155
0.257
0.347
0.415
0.411
0.33
0.226
0.111
0.008
-0.08
-0.096
-0.094
-0.079
-0.069
-0.062
-0.058
-0.058
-0.058
-0.056
-0.056
-0.055
-0.054
-0.052
-0.04
-0.025
-0.011
0.004
0.021
0.03
0.046
0.061
0.074
0.084
0.092
0.092
0.093
0.094
0.076
0.061
0.042
0.022
-0
-0.005
-0.02
-0.032
-0.043
-0.054
-0.062
-0.063
-0.062
-0.06
-0.06
-0.061
-0.061
-0.061
-0.062
-0.059
-0.059
-0.06
-0.059
-0.057
-0.059
-0.058
-0.057
-0.057
-0.057
-0.056
-0.056
-0.055
-0.055
-0.054
-0.054
-0.053
-0.054
-0.052
-0.053
-0.054
-0.055
-0.053
-0.043
-0.033
-0.021
-0.009
0.004
0.008
0.009
0.012
0.012
0.007
0.001
-0.003
-0.017
-0.026
-0.035
-0.044
-0.051
-0.05
-0.052
-0.051
-0.05
-0.049
-0.049
-0.048
-0.043
-0.046
-0.039
-0.022
0.007
0.044
0.137
0.235
0.307
0.35
0.368
0.324
0.209
0.105
0.02
-0.049
-0.101
-0.092
-0.08
-0.073
-0.067
-0.066
-0.065
-0.064
-0.063
-0.062
-0.057
-0.052
-0.042
-0.032
-0.014
0.003
0.02
0.036
0.054
0.064
0.074
0.08
0.085
0.088
0.092
0.091
0.089
0.084
0.076
0.066
0.057
0.048
0.032
0.014
-0.003
-0.022
-0.039
-0.049
-0.056
-0.061
-0.064
-0.065
-0.063
-0.062
-0.061
-0.061
-0.061
-0.062
-0.061
-0.06
-0.059
-0.059
-0.059
-0.058
-0.057
-0.056
-0.055
-0.055
-0.055
-0.056
-0.055
-0.054
-0.052
-0.051
-0.049
-0.049
-0.047
-0.047
-0.046
-0.046
-0.045
-0.044
-0.038
-0.032
-0.017
-0.004
0.007
0.016
0.025
0.025
0.02
0.011
0.002
-0.009
-0.021
-0.028
-0.033
-0.037
-0.039
-0.04
-0.039
-0.036
-0.035
-0.035
-0.036
-0.036
-0.036
-0.036
-0.003
0.039
0.092
0.156
0.236
0.294
0.315
0.309
0.277
0.218
0.134
0.064
0.014
-0.024
-0.047
-0.059
-0.054
-0.053
-0.052
-0.052
-0.051
-0.05
-0.049
-0.047
-0.041
-0.035
-0.028
-0.019
-0.008
0.001
0.022
0.039
0.055
0.071
0.087
0.092
0.099
0.103
0.104
0.103
0.102
0.099
0.093
0.085
0.074
0.062
0.048
0.038
0.018
0.001
-0.016
-0.032
-0.047
-0.048
-0.051
-0.053
-0.055
-0.054
-0.053
-0.052
-0.052
-0.051
-0.051
-0.052
-0.052
-0.051
-0.05
-0.049
-0.048
-0.047
-0.047
-0.046
-0.046
-0.046
-0.047
-0.046
-0.046
-0.045
-0.044
-0.044
-0.045
-0.044
-0.044
-0.043
-0.038
-0.036
-0.032
-0.026
-0.018
-0.013
0.002
0.012
0.02
0.025
0.029
0.027
0.018
0.007
-0.006
-0.019
-0.03
-0.033
-0.035
-0.036
-0.037
-0.039
-0.04
-0.039
-0.037
-0.038
-0.039
-0.041
-0.046
-0.048
0.009
0.076
0.153
0.244
0.346
0.39
0.359
0.303
0.221
0.112
-0.007
-0.056
-0.079
-0.088
-0.085
-0.073
-0.062
-0.063
-0.061
-0.061
-0.06
-0.059
-0.058
-0.057
-0.047
-0.037
-0.026
-0.013
0.001
0.01
0.027
0.045
0.059
0.072
0.084
0.086
0.089
0.091
0.091
0.09
0.088
0.085
0.075
0.064
0.049
0.032
0.014
0.003
-0.013
-0.027
-0.042
-0.055
-0.066
-0.068
-0.067
-0.065
-0.065
-0.065
-0.064
-0.064
-0.063
-0.061
-0.062
-0.063
-0.062
-0.062
-0.061
-0.059
-0.058
-0.057
-0.057
-0.057
-0.057
-0.058
-0.059
-0.059
-0.059
-0.058
-0.056
-0.054
-0.054
-0.054
-0.054
-0.054
-0.049
-0.043
-0.037
-0.029
-0.019
-0.01
0
0.009
0.014
0.015
0.013
0.008
-0.004
-0.015
-0.028
-0.038
-0.047
-0.048
-0.046
-0.045
-0.045
-0.045
-0.045
-0.046
-0.045
-0.045
-0.051
-0.054
-0.046
-0.026
0.055
0.152
0.255
0.344
0.41
0.402
0.317
0.209
0.094
-0.007
-0.092
-0.104
-0.099
-0.084
-0.073
-0.066
-0.063
-0.062
-0.061
-0.059
-0.045
-0.03
-0.017
-0.002
0.018
0.026
0.042
0.059
0.072
0.083
0.092
0.091
0.089
0.087
0.084
0.079
0.065
0.051
0.036
0.018
0.001
-0.008
-0.023
-0.035
-0.046
-0.055
-0.064
-0.063
-0.064
-0.063
-0.062
-0.06
-0.059
-0.056
-0.055
-0.054
-0.054
-0.054
-0.054
-0.051
-0.051
-0.05
-0.05
-0.047
-0.047
-0.045
-0.044
-0.044
-0.044
-0.045
-0.045
-0.044
-0.044
-0.044
-0.043
-0.042
-0.034
-0.023
-0.012
-0.002
0.01
0.016
0.016
0.019
0.018
0.013
0.006
0.002
-0.011
-0.019
-0.027
-0.035
-0.04
-0.039
-0.04
-0.038
-0.037
-0.036
-0.036
-0.034
-0.026
-0.025
-0.016
0.004
0.036
0.072
0.161
0.254
0.321
0.36
0.373
0.331
0.217
0.116
0.033
-0.032
-0.082
-0.073
-0.062
-0.052
-0.048
-0.049
-0.049
-0.048
-0.048
-0.046
-0.044
-0.042
-0.038
-0.031
-0.014
0.003
0.019
0.035
0.051
0.058
0.07
0.083
0.093
0.099
0.103
0.102
0.098
0.091
0.084
0.076
0.066
0.056
0.039
0.022
0.004
-0.014
-0.029
-0.038
-0.044
-0.05
-0.054
-0.056
-0.055
-0.055
-0.054
-0.054
-0.053
-0.053
-0.052
-0.05
-0.049
-0.049
-0.05
-0.05
-0.049
-0.048
-0.048
-0.05
-0.051
-0.051
-0.051
-0.049
-0.047
-0.047
-0.047
-0.047
-0.047
-0.047
-0.045
-0.045
-0.045
-0.042
-0.037
-0.032
-0.018
-0.006
0.005
0.014
0.023
0.024
0.019
0.008
-0.004
-0.017
-0.03
-0.037
-0.042
-0.046
-0.047
-0.049
-0.048
-0.048
-0.046
-0.047
-0.047
-0.047
-0.046
-0.047
-0.013
0.031
0.086
0.153
0.254
0.311
0.328
0.317
0.28
0.197
0.109
0.04
-0.009
-0.045
-0.066
-0.074
-0.066
-0.063
-0.062
-0.063
-0.063
-0.064
-0.063
-0.062
-0.056
-0.05
-0.042
-0.033
-0.022
-0.012
0.006
0.021
0.037
0.053
0.069
0.075
0.081
0.085
0.086
0.086
0.086
0.086
0.08
0.071
0.059
0.046
0.032
0.021
0.004
-0.014
-0.031
-0.048
-0.063
-0.068
-0.07
-0.072
-0.072
-0.071
-0.069
-0.067
-0.067
-0.067
-0.068
-0.068
-0.068
-0.067
-0.066
-0.065
-0.065
-0.064
-0.062
-0.061
-0.06
-0.06
-0.061
-0.06
-0.06
-0.058
-0.056
-0.055
-0.054
-0.053
-0.053
-0.052
-0.046
-0.043
-0.039
-0.032
-0.023
-0.017
-0.006
0.004
0.011
0.017
0.02
0.02
0.006
-0.005
-0.018
-0.031
-0.043
-0.042
-0.044
-0.043
-0.044
-0.043
-0.042
-0.04
-0.039
-0.038
-0.039
-0.041
-0.046
-0.046
0.012
0.081
0.162
0.257
0.359
0.399
0.362
0.301
0.214
0.102
-0.015
-0.061
-0.081
-0.089
-0.083
-0.069
-0.057
-0.056
-0.054
-0.053
-0.052
-0.052
-0.052
-0.051
-0.04
-0.029
-0.018
-0.005
0.01
0.018
0.036
0.053
0.067
0.08
0.092
0.095
0.099
0.102
0.103
0.101
0.099
0.096
0.087
0.075
0.061
0.045
0.028
0.017
0.001
-0.013
-0.028
-0.041
-0.052
-0.054
-0.053
-0.052
-0.051
-0.051
-0.05
-0.05
-0.048
-0.047
-0.047
-0.048
-0.048
-0.048
-0.047
-0.046
-0.047
-0.047
-0.047
-0.047
-0.046
-0.044
-0.044
-0.043
-0.043
-0.042
-0.04
-0.039
-0.039
-0.039
-0.039
-0.039
-0.033
-0.026
-0.019
-0.011
0
0.008
0.016
0.023
0.026
0.026
0.024
0.018
0.006
-0.005
-0.017
-0.027
-0.036
-0.036
-0.035
-0.034
-0.034
-0.034
-0.035
-0.035
-0.034
-0.035
-0.04
-0.042
-0.031
-0.008
0.077
0.177
0.279
0.363
0.424
0.411
0.32
0.209
0.096
-0.003
-0.085
-0.094
-0.086
-0.071
-0.061
-0.055
-0.053
-0.053
-0.052
-0.05
-0.05
-0.05
-0.049
-0.046
-0.034
-0.02
0.01
0.038
0.062
0.078
0.093
0.094
0.094
0.095
0.094
0.09
0.084
0.079
0.064
0.049
0.032
0.014
-0.013
-0.029
-0.045
-0.056
-0.066
-0.065
-0.065
-0.063
-0.064
-0.064
-0.063
-0.062
-0.061
-0.059
-0.058
-0.059
-0.059
-0.06
-0.059
-0.058
-0.059
-0.059
-0.059
-0.059
-0.058
-0.057
-0.058
-0.058
-0.057
-0.057
-0.057
-0.054
-0.053
-0.053
-0.053
-0.052
-0.044
-0.033
-0.022
-0.01
0.004
0.009
0.012
0.014
0.012
0.006
-0.001
-0.009
-0.02
-0.029
-0.037
-0.045
-0.051
-0.051
-0.052
-0.053
-0.052
-0.051
-0.051
-0.049
-0.037
-0.036
-0.025
-0.002
0.033
0.069
0.152
0.238
0.298
0.33
0.335
0.292
0.183
0.087
0.009
-0.051
-0.098
-0.09
-0.081
-0.073
-0.07
-0.069
-0.068
-0.066
-0.065
-0.063
-0.06
-0.058
-0.053
-0.046
-0.027
-0.009
0.008
0.024
0.041
0.048
0.06
0.073
0.082
0.088
0.092
0.093
0.086
0.084
0.08
0.073
0.064
0.059
0.038
0.022
0.006
-0.012
-0.03
-0.035
-0.047
-0.055
-0.062
-0.067
-0.069
-0.067
-0.067
-0.065
-0.063
-0.064
-0.064
-0.063
-0.063
-0.062
-0.059
-0.058
-0.057
-0.055
-0.054
-0.054
-0.053
-0.053
-0.052
-0.051
-0.051
-0.051
-0.05
-0.05
-0.049
-0.048
-0.048
-0.049
-0.048
-0.046
-0.04
-0.033
-0.019
-0.007
0.004
0.014
0.022
0.022
0.017
0.008
-0.003
-0.015
-0.027
-0.033
-0.038
-0.041
-0.043
-0.043
-0.043
-0.042
-0.039
-0.039
-0.037
-0.036
-0.034
-0.036
0
0.045
0.101
0.17
0.274
0.332
0.344
0.331
0.29
0.204
0.113
0.044
-0.002
-0.036
-0.055
-0.062
-0.054
-0.053
-0.052
-0.05
-0.049
-0.048
-0.039
-0.032
-0.024
-0.014
-0.002
0.005
0.026
0.042
0.058
0.074
0.089
0.092
0.099
0.103
0.104
0.103
0.103
0.1
0.094
0.085
0.055
0.026
-0.004
-0.028
-0.049
-0.05
-0.051
-0.052
-0.052
-0.053
-0.052
-0.052
-0.05
-0.05
-0.049
-0.048
-0.047
-0.047
-0.045
-0.045
-0.045
-0.045
-0.045
-0.044
-0.043
-0.043
-0.044
-0.044
-0.043
-0.042
-0.042
-0.042
-0.042
-0.042
-0.043
-0.042
-0.039
-0.037
-0.033
-0.027
-0.018
-0.01
0.001
0.011
0.017
0.022
0.013
0.001
-0.012
-0.024
-0.037
-0.037
-0.04
-0.041
-0.043
-0.043
-0.043
-0.042
-0.043
-0.043
-0.045
-0.047
-0.052
-0.051
0.031
0.102
0.185
0.283
0.385
0.401
0.333
0.269
0.177
0.063
-0.053
-0.067
-0.088
-0.093
-0.085
-0.072
-0.061
-0.06
-0.059
-0.059
-0.059
-0.059
-0.059
-0.058
-0.048
-0.038
-0.028
-0.016
-0.001
0.007
0.026
0.043
0.058
0.071
0.083
0.085
0.088
0.09
0.09
0.089
0.087
0.083
0.072
0.06
0.044
0.027
0.009
-0.002
-0.017
-0.032
-0.046
-0.059
-0.07
-0.071
-0.069
-0.068
-0.069
-0.068
-0.068
-0.067
-0.066
-0.065
-0.066
-0.066
-0.066
-0.065
-0.063
-0.061
-0.062
-0.062
-0.061
-0.061
-0.06
-0.059
-0.06
-0.06
-0.06
-0.059
-0.058
-0.056
-0.056
-0.057
-0.057
-0.057
-0.051
-0.043
-0.036
-0.028
-0.017
-0.009
0
0.008
0.011
0.012
0.011
0.005
-0.007
-0.018
-0.031
-0.042
-0.051
-0.051
-0.051
-0.049
-0.05
-0.05
-0.05
-0.05
-0.05
-0.051
-0.057
-0.057
-0.044
-0.019
0.068
0.171
0.272
0.354
0.411
0.396
0.302
0.188
0.077
-0.019
-0.098
-0.104
-0.094
-0.078
-0.069
-0.064
-0.062
-0.061
-0.06
-0.057
-0.043
-0.028
-0.013
0.003
0.023
0.033
0.048
0.064
0.076
0.085
0.093
0.095
0.096
0.096
0.082
0.065
0.044
0.022
0
-0.009
-0.022
-0.032
-0.042
-0.051
-0.057
-0.058
-0.057
-0.056
-0.056
-0.056
-0.055
-0.055
-0.055
-0.054
-0.051
-0.051
-0.051
-0.05
-0.05
-0.051
-0.051
-0.051
-0.05
-0.049
-0.047
-0.044
-0.043
-0.043
-0.041
-0.041
-0.041
-0.039
-0.039
-0.039
-0.039
-0.039
-0.031
-0.02
-0.009
0.003
0.016
0.022
0.026
0.028
0.026
0.02
0.013
0.005
-0.006
-0.014
-0.022
-0.028
-0.032
-0.033
-0.032
-0.031
-0.031
-0.032
-0.031
-0.031
-0.036
-0.032
-0.019
0.005
0.039
0.092
0.193
0.278
0.336
0.367
0.373
0.31
0.195
0.101
0.024
-0.036
-0.081
-0.067
-0.058
-0.051
-0.048
-0.047
-0.046
-0.046
-0.045
-0.044
-0.044
-0.043
-0.038
-0.031
-0.011
0.007
0.025
0.041
0.058
0.064
0.076
0.087
0.096
0.101
0.104
0.103
0.098
0.095
0.092
0.086
0.077
0.072
0.05
0.033
0.017
-0.001
-0.019
-0.024
-0.036
-0.044
-0.051
-0.056
-0.059
-0.057
-0.058
-0.056
-0.055
-0.056
-0.057
-0.055
-0.056
-0.055
-0.054
-0.055
-0.054
-0.053
-0.053
-0.051
-0.05
-0.051
-0.051
-0.05
-0.051
-0.05
-0.049
-0.05
-0.05
-0.049
-0.05
-0.049
-0.048
-0.049
-0.049
-0.046
-0.033
-0.02
-0.006
0.008
0.02
0.021
0.014
0.004
-0.007
-0.021
-0.033
-0.038
-0.042
-0.045
-0.047
-0.048
-0.048
-0.047
-0.046
-0.046
-0.046
-0.047
-0.046
-0.049
-0.012
0.036
0.094
0.164
0.268
0.325
0.332
0.313
0.267
0.178
0.083
0.015
-0.029
-0.06
-0.077
-0.081
-0.07
-0.069
-0.067
-0.067
-0.066
-0.066
-0.065
-0.065
-0.058
-0.052
-0.026
-0.002
0.023
0.046
0.069
0.072
0.079
0.083
0.085
0.085
0.085
0.083
0.071
0.062
0.05
0.037
0.023
0.017
0.001
-0.016
-0.033
-0.048
-0.062
-0.066
-0.068
-0.069
-0.069
-0.069
-0.068
-0.067
-0.066
-0.067
-0.067
-0.067
-0.067
-0.066
-0.063
-0.063
-0.063
-0.062
-0.062
-0.062
-0.061
-0.06
-0.06
-0.06
-0.059
-0.057
-0.055
-0.054
-0.051
-0.048
-0.045
-0.038
-0.028
-0.019
-0.006
0.004
0.011
0.016
0.018
0.015
0.005
-0.006
-0.018
-0.03
-0.041
-0.043
-0.044
-0.045
-0.046
-0.046
-0.046
-0.044
-0.044
-0.043
-0.043
-0.045
-0.05
-0.046
0.036
0.109
0.193
0.292
0.392
0.403
0.331
0.262
0.167
0.051
-0.061
-0.072
-0.089
-0.091
-0.081
-0.068
-0.058
-0.056
-0.056
-0.055
-0.055
-0.053
-0.052
-0.05
-0.038
-0.026
-0.015
0
0.016
0.023
0.041
0.058
0.071
0.083
0.094
0.097
0.1
0.103
0.102
0.1
0.097
0.092
0.082
0.071
0.057
0.041
0.024
0.013
-0.003
-0.019
-0.034
-0.046
-0.056
-0.056
-0.054
-0.052
-0.053
-0.052
-0.052
-0.052
-0.05
-0.049
-0.049
-0.049
-0.048
-0.047
-0.046
-0.046
-0.047
-0.047
-0.047
-0.046
-0.044
-0.043
-0.044
-0.045
-0.044
-0.043
-0.043
-0.041
-0.034
-0.029
-0.022
-0.011
0.001
0.009
0.018
0.025
0.027
0.027
0.024
0.019
0.007
-0.003
-0.015
-0.026
-0.035
-0.036
-0.036
-0.035
-0.035
-0.035
-0.035
-0.035
-0.042
-0.043
0.042
0.138
0.239
0.337
0.42
0.4
0.302
0.187
0.078
-0.015
-0.091
-0.095
-0.084
-0.069
-0.06
-0.055
-0.053
-0.052
-0.053
-0.052
-0.05
-0.045
-0.034
-0.018
-0.003
0.012
0.027
0.037
0.052
0.068
0.081
0.09
0.097
0.098
0.096
0.095
0.092
0.087
0.081
0.077
0.062
0.047
0.031
0.012
-0.007
-0.016
-0.031
-0.044
-0.053
-0.062
-0.068
-0.069
-0.068
-0.067
-0.068
-0.069
-0.066
-0.065
-0.064
-0.061
-0.061
-0.062
-0.063
-0.062
-0.062
-0.062
-0.06
-0.059
-0.059
-0.058
-0.057
-0.056
-0.057
-0.057
-0.057
-0.056
-0.056
-0.056
-0.055
-0.054
-0.045
-0.033
-0.021
-0.009
0.003
0.008
0.011
0.012
0.01
0.003
-0.004
-0.013
-0.026
-0.035
-0.043
-0.051
-0.056
-0.055
-0.055
-0.053
-0.054
-0.055
-0.054
-0.054
-0.058
-0.053
-0.038
-0.013
0.024
0.079
0.179
0.261
0.317
0.344
0.346
0.28
0.168
0.076
0.002
-0.056
-0.099
-0.086
-0.076
-0.069
-0.065
-0.065
-0.065
-0.065
-0.064
-0.063
-0.061
-0.059
-0.038
-0.021
-0.001
0.02
0.042
0.047
0.059
0.068
0.076
0.082
0.087
0.087
0.084
0.082
0.078
0.07
0.061
0.054
0.034
0.017
0.001
-0.016
-0.032
-0.038
-0.049
-0.057
-0.064
-0.068
-0.07
-0.069
-0.067
-0.065
-0.063
-0.062
-0.061
-0.061
-0.061
-0.061
-0.06
-0.059
-0.057
-0.057
-0.056
-0.055
-0.053
-0.053
-0.052
-0.053
-0.053
-0.053
-0.052
-0.051
-0.05
-0.051
-0.05
-0.049
-0.048
-0.047
-0.044
-0.041
-0.027
-0.015
-0.002
0.01
0.021
0.022
0.017
0.011
0.005
-0.004
-0.015
-0.021
-0.028
-0.035
-0.04
-0.042
-0.042
-0.041
-0.04
-0.039
-0.038
-0.038
-0.038
-0.041
-0.001
0.049
0.109
0.183
0.214
0.216
0.193
0.146
0.072
0.033
-0.009
-0.037
-0.052
-0.053
-0.042
-0.042
-0.041
-0.042
-0.041
-0.041
-0.041
-0.04
-0.034
-0.026
-0.017
-0.006
0.007
0.017
0.035
0.052
0.071
0.089
0.103
0.108
0.11
0.11
0.102
0.093
0.081
0.066
0.051
0.04
0.023
0.006
-0.009
-0.025
-0.039
-0.043
-0.046
-0.048
-0.047
-0.047
-0.047
-0.045
-0.043
-0.042
-0.042
-0.042
-0.043
-0.043
-0.043
-0.043
-0.043
-0.043
-0.042
-0.041
-0.04
-0.039
-0.038
-0.038
-0.038
-0.036
-0.035
-0.035
-0.034
-0.035
-0.036
-0.036
-0.034
-0.031
-0.026
-0.02
-0.012
-0.003
0.008
0.018
0.026
0.031
0.033
0.03
0.018
0.005
-0.008
-0.021
-0.033
-0.035
-0.036
-0.037
-0.038
-0.039
-0.039
-0.039
-0.039
-0.038
-0.038
-0.04
-0.044
-0.038
0.026
0.1
0.189
0.289
0.386
0.414
0.338
0.264
0.166
0.048
-0.063
-0.072
-0.087
-0.087
-0.076
-0.062
-0.053
-0.054
-0.054
-0.054
-0.053
-0.053
-0.053
-0.051
-0.039
-0.028
-0.016
-0.001
0.015
0.021
0.038
0.054
0.067
0.08
0.09
0.091
0.091
0.093
0.093
0.092
0.09
0.088
0.071
0.058
0.043
0.027
0.009
0.004
-0.015
-0.029
-0.043
-0.055
-0.066
-0.065
-0.065
-0.064
-0.064
-0.063
-0.063
-0.063
-0.062
-0.062
-0.062
-0.061
-0.061
-0.061
-0.06
-0.06
-0.06
-0.06
-0.059
-0.059
-0.057
-0.055
-0.055
-0.054
-0.054
-0.054
-0.054
-0.053
-0.053
-0.053
-0.052
-0.052
-0.047
-0.039
-0.03
-0.021
-0.008
-0
0.007
0.013
0.015
0.014
0.011
0.006
-0.007
-0.019
-0.029
-0.038
-0.046
-0.046
-0.045
-0.045
-0.045
-0.044
-0.043
-0.044
-0.043
-0.045
-0.049
-0.045
-0.029
-0
0.09
0.195
0.293
0.367
0.416
0.391
0.289
0.171
0.065
-0.025
-0.098
-0.1
-0.087
-0.074
-0.065
-0.061
-0.058
-0.059
-0.058
-0.056
-0.056
-0.055
-0.054
-0.05
-0.037
-0.022
-0.005
0.011
0.028
0.037
0.052
0.067
0.08
0.09
0.097
0.099
0.098
0.098
0.096
0.092
0.086
0.081
0.065
0.05
0.034
0.016
-0.002
-0.01
-0.024
-0.034
-0.043
-0.051
-0.057
-0.056
-0.056
-0.054
-0.053
-0.053
-0.052
-0.051
-0.051
-0.05
-0.05
-0.05
-0.049
-0.048
-0.048
-0.046
-0.046
-0.046
-0.045
-0.044
-0.043
-0.04
-0.039
-0.039
-0.038
-0.038
-0.039
-0.04
-0.04
-0.041
-0.041
-0.04
-0.031
-0.019
-0.007
0.006
0.019
0.024
0.027
0.028
0.026
0.02
0.012
0.004
-0.007
-0.016
-0.023
-0.029
-0.033
-0.033
-0.034
-0.034
-0.033
-0.032
-0.032
-0.031
-0.035
-0.03
-0.014
0.013
0.052
0.108
0.205
0.282
0.333
0.356
0.355
0.288
0.179
0.089
0.018
-0.037
-0.078
-0.065
-0.057
-0.052
-0.05
-0.05
-0.05
-0.05
-0.05
-0.048
-0.045
-0.04
-0.033
-0.025
-0.004
0.016
0.037
0.057
0.079
0.086
0.094
0.099
0.103
0.102
0.102
0.101
0.098
0.094
0.091
0.085
0.075
0.068
0.05
0.033
0.016
-0.001
-0.019
-0.028
-0.039
-0.046
-0.052
-0.057
-0.059
-0.059
-0.059
-0.059
-0.057
-0.057
-0.057
-0.057
-0.057
-0.056
-0.055
-0.055
-0.054
-0.054
-0.053
-0.054
-0.053
-0.054
-0.054
-0.054
-0.053
-0.052
-0.051
-0.05
-0.049
-0.049
-0.05
-0.051
-0.051
-0.051
-0.049
-0.045
-0.031
-0.017
-0.003
0.01
0.02
0.019
0.013
0.008
0.001
-0.008
-0.019
-0.025
-0.034
-0.04
-0.044
-0.046
-0.046
-0.046
-0.047
-0.047
-0.046
-0.046
-0.045
-0.046
-0.006
0.023
0.063
0.115
0.178
0.209
0.232
0.228
0.2
0.147
0.07
0.015
-0.026
-0.053
-0.065
-0.064
-0.063
-0.063
-0.062
-0.062
-0.061
-0.061
-0.054
-0.046
-0.02
0.006
0.033
0.055
0.076
0.079
0.082
0.085
0.086
0.085
0.083
0.082
0.075
0.065
0.054
0.04
0.025
0.015
-0.001
-0.017
-0.033
-0.048
-0.062
-0.066
-0.067
-0.068
-0.067
-0.067
-0.067
-0.067
-0.066
-0.065
-0.064
-0.063
-0.063
-0.061
-0.061
-0.06
-0.059
-0.059
-0.06
-0.058
-0.057
-0.056
-0.055
-0.055
-0.055
-0.054
-0.053
-0.053
-0.052
-0.051
-0.05
-0.05
-0.048
-0.044
-0.039
-0.033
-0.024
-0.014
-0.002
0.007
0.014
0.018
0.018
0.015
0.003
-0.01
-0.022
-0.034
-0.046
-0.048
-0.047
-0.047
-0.046
-0.045
-0.044
-0.042
-0.042
-0.042
-0.043
-0.047
-0.051
-0.044
0.022
0.099
0.189
0.29
0.385
0.409
0.357
0.281
0.179
0.062
-0.045
-0.079
-0.092
-0.09
-0.078
-0.065
-0.056
-0.055
-0.053
-0.051
-0.05
-0.049
-0.05
-0.049
-0.039
-0.028
-0.015
-0.002
0.014
0.023
0.04
0.056
0.07
0.082
0.092
0.093
0.094
0.096
0.096
0.096
0.093
0.092
0.075
0.061
0.046
0.03
0.012
0.007
-0.01
-0.024
-0.037
-0.048
-0.057
-0.056
-0.055
-0.054
-0.054
-0.053
-0.053
-0.053
-0.052
-0.051
-0.05
-0.048
-0.047
-0.046
-0.046
-0.046
-0.046
-0.045
-0.045
-0.044
-0.044
-0.042
-0.042
-0.04
-0.04
-0.04
-0.041
-0.04
-0.041
-0.041
-0.04
-0.039
-0.033
-0.026
-0.017
-0.007
0.004
0.012
0.018
0.023
0.025
0.022
0.017
0.011
-0.002
-0.012
-0.022
-0.03
-0.036
-0.037
-0.037
-0.036
-0.037
-0.037
-0.038
-0.038
-0.039
-0.041
-0.044
-0.037
-0.019
0.011
0.116
0.222
0.317
0.388
0.356
0.238
0.121
0.007
-0.091
-0.09
-0.077
-0.065
-0.057
-0.052
-0.051
-0.05
-0.049
-0.047
-0.046
-0.046
-0.043
-0.039
-0.026
-0.01
0.005
0.021
0.037
0.047
0.06
0.074
0.085
0.092
0.098
0.1
0.098
0.099
0.097
0.093
0.087
0.081
0.065
0.05
0.033
0.015
-0.003
-0.011
-0.025
-0.036
-0.047
-0.056
-0.063
-0.063
-0.062
-0.06
-0.059
-0.06
-0.06
-0.059
-0.059
-0.059
-0.058
-0.059
-0.058
-0.058
-0.058
-0.056
-0.055
-0.056
-0.056
-0.057
-0.058
-0.056
-0.055
-0.056
-0.056
-0.055
-0.055
-0.053
-0.052
-0.052
-0.051
-0.05
-0.041
-0.029
-0.017
-0.005
0.009
0.015
0.016
0.017
0.013
0.007
-0.001
-0.008
-0.02
-0.03
-0.036
-0.042
-0.046
-0.046
-0.044
-0.044
-0.044
-0.045
-0.044
-0.044
-0.047
-0.04
-0.021
0.007
0.047
0.104
0.197
0.27
0.318
0.337
0.331
0.263
0.157
0.07
0.003
-0.05
-0.088
-0.076
-0.069
-0.066
-0.064
-0.064
-0.063
-0.062
-0.06
-0.059
-0.057
-0.054
-0.048
-0.041
-0.023
-0.005
0.014
0.031
0.048
0.056
0.066
0.075
0.084
0.089
0.092
0.092
0.089
0.087
0.083
0.077
0.068
0.06
0.041
0.024
0.007
-0.011
-0.027
-0.036
-0.046
-0.053
-0.058
-0.062
-0.064
-0.063
-0.062
-0.06
-0.059
-0.059
-0.058
-0.057
-0.057
-0.056
-0.054
-0.054
-0.054
-0.053
-0.054
-0.053
-0.052
-0.052
-0.052
-0.052
-0.052
-0.051
-0.049
-0.048
-0.048
-0.048
-0.048
-0.047
-0.046
-0.045
-0.043
-0.039
-0.025
-0.011
0.004
0.016
0.026
0.025
0.018
0.012
0.006
-0.004
-0.015
-0.02
-0.028
-0.034
-0.038
-0.041
-0.042
-0.041
-0.04
-0.039
-0.037
-0.036
-0.035
-0.036
-0.018
0.013
0.056
0.11
0.161
0.18
0.171
0.138
0.081
0.016
-0.021
-0.045
-0.054
-0.051
-0.038
-0.038
-0.038
-0.039
-0.029
-0.021
-0.012
0
0.014
0.021
0.038
0.056
0.072
0.086
0.1
0.105
0.109
0.11
0.11
0.109
0.107
0.105
0.097
0.088
0.076
0.061
0.046
0.036
0.02
0.003
-0.013
-0.029
-0.043
-0.047
-0.048
-0.048
-0.048
-0.049
-0.05
-0.049
-0.048
-0.047
-0.047
-0.047
-0.046
-0.045
-0.043
-0.042
-0.041
-0.04
-0.039
-0.039
-0.037
-0.037
-0.037
-0.038
-0.037
-0.037
-0.037
-0.036
-0.036
-0.037
-0.037
-0.035
-0.032
-0.028
-0.021
-0.015
-0.007
0.003
0.014
0.023
0.029
0.031
0.032
0.028
0.016
0.004
-0.008
-0.02
-0.032
-0.034
-0.035
-0.036
-0.037
-0.038
-0.039
-0.039
-0.038
-0.036
-0.037
-0.042
-0.045
-0.037
0.03
0.109
0.202
0.303
0.394
0.414
0.356
0.275
0.168
0.051
-0.054
-0.085
-0.095
-0.091
-0.078
-0.066
-0.058
-0.056
-0.055
-0.053
-0.054
-0.054
-0.055
-0.055
-0.045
-0.033
-0.02
-0.005
0.011
0.021
0.038
0.054
0.067
0.079
0.088
0.09
0.091
0.092
0.092
0.09
0.087
0.084
0.072
0.059
0.043
0.026
0.008
-0.002
-0.019
-0.033
-0.046
-0.057
-0.067
-0.066
-0.066
-0.065
-0.065
-0.065
-0.065
-0.063
-0.063
-0.062
-0.062
-0.06
-0.06
-0.058
-0.058
-0.056
-0.057
-0.056
-0.056
-0.054
-0.055
-0.054
-0.056
-0.056
-0.057
-0.055
-0.056
-0.054
-0.054
-0.053
-0.052
-0.051
-0.043
-0.034
-0.025
-0.014
-0.002
0.003
0.007
0.012
0.013
0.011
0.007
0.003
-0.01
-0.02
-0.03
-0.039
-0.046
-0.046
-0.047
-0.046
-0.047
-0.046
-0.046
-0.046
-0.049
-0.053
-0.056
-0.048
0.043
0.148
0.252
0.342
0.407
0.373
0.264
0.147
0.047
-0.036
-0.102
-0.097
-0.083
-0.071
-0.064
-0.061
-0.06
-0.059
-0.058
-0.056
-0.055
-0.054
-0.051
-0.047
-0.033
-0.017
-0.001
0.014
0.031
0.039
0.053
0.068
0.079
0.087
0.095
0.095
0.094
0.094
0.093
0.09
0.085
0.08
0.064
0.048
0.03
0.012
-0.006
-0.015
-0.028
-0.037
-0.046
-0.054
-0.059
-0.059
-0.058
-0.056
-0.055
-0.055
-0.055
-0.054
-0.053
-0.051
-0.05
-0.05
-0.049
-0.049
-0.049
-0.048
-0.048
-0.048
-0.047
-0.047
-0.046
-0.043
-0.041
-0.04
-0.038
-0.038
-0.038
-0.037
-0.036
-0.037
-0.037
-0.037
-0.028
-0.017
-0.004
0.008
0.021
0.026
0.026
0.026
0.023
0.017
0.009
0.002
-0.008
-0.016
-0.023
-0.028
-0.031
-0.031
-0.031
-0.03
-0.029
-0.03
-0.03
-0.029
-0.032
-0.023
-0.002
0.029
0.071
0.129
0.219
0.287
0.331
0.346
0.336
0.267
0.164
0.081
0.016
-0.035
-0.071
-0.061
-0.054
-0.049
-0.047
-0.047
-0.046
-0.045
-0.046
-0.044
-0.04
-0.037
-0.032
-0.024
-0.008
0.01
0.028
0.045
0.062
0.071
0.079
0.087
0.094
0.098
0.1
0.101
0.097
0.094
0.09
0.083
0.073
0.065
0.047
0.03
0.013
-0.005
-0.022
-0.032
-0.041
-0.048
-0.053
-0.057
-0.06
-0.059
-0.059
-0.059
-0.058
-0.057
-0.057
-0.056
-0.055
-0.054
-0.052
-0.051
-0.051
-0.051
-0.051
-0.051
-0.05
-0.051
-0.051
-0.051
-0.05
-0.05
-0.049
-0.049
-0.05
-0.05
-0.05
-0.05
-0.049
-0.049
-0.048
-0.045
-0.034
-0.02
-0.006
0.007
0.018
0.02
0.015
0.009
0
-0.011
-0.024
-0.034
-0.041
-0.047
-0.051
-0.051
-0.05
-0.049
-0.048
-0.048
-0.003
0.029
0.073
0.129
0.195
0.226
0.241
0.256
0.247
0.213
0.153
0.111
0.049
-0.002
-0.038
-0.06
-0.069
-0.07
-0.07
-0.069
-0.069
-0.068
-0.067
-0.066
-0.059
-0.054
-0.047
-0.039
-0.029
-0.026
-0.005
0.011
0.028
0.044
0.062
0.064
0.072
0.076
0.081
0.084
0.086
0.083
0.075
0.067
0.058
0.048
0.035
0.028
0.008
-0.009
-0.026
-0.042
-0.058
-0.061
-0.066
-0.069
-0.07
-0.069
-0.069
-0.068
-0.068
-0.068
-0.068
-0.069
-0.069
-0.068
-0.066
-0.065
-0.063
-0.062
-0.061
-0.059
-0.059
-0.059
-0.059
-0.059
-0.06
-0.059
-0.059
-0.059
-0.058
-0.057
-0.056
-0.055
-0.051
-0.047
-0.041
-0.035
-0.026
-0.016
-0.004
0.005
0.012
0.016
0.017
0.014
0.002
-0.009
-0.021
-0.033
-0.044
-0.047
-0.048
-0.047
-0.047
-0.046
-0.045
-0.044
-0.044
-0.044
-0.045
-0.049
-0.05
-0.039
0.031
0.114
0.21
0.312
0.4
0.417
0.355
0.269
0.159
0.043
-0.059
-0.087
-0.095
-0.088
-0.073
-0.061
-0.054
-0.053
-0.053
-0.052
-0.051
-0.051
-0.051
-0.05
-0.039
-0.026
-0.012
0.004
0.021
0.03
0.047
0.062
0.076
0.088
0.097
0.099
0.098
0.098
0.097
0.095
0.091
0.09
0.073
0.06
0.045
0.029
0.01
0.006
-0.01
-0.024
-0.036
-0.046
-0.055
-0.054
-0.054
-0.053
-0.052
-0.052
-0.052
-0.052
-0.051
-0.051
-0.05
-0.049
-0.048
-0.047
-0.045
-0.044
-0.043
-0.043
-0.043
-0.042
-0.042
-0.041
-0.041
-0.041
-0.04
-0.039
-0.039
-0.038
-0.038
-0.037
-0.037
-0.037
-0.028
-0.02
-0.011
0
0.013
0.018
0.024
0.028
0.029
0.027
0.022
0.016
0.003
-0.008
-0.017
-0.025
-0.033
-0.033
-0.035
-0.035
-0.036
-0.035
-0.035
-0.034
-0.035
-0.039
-0.04
-0.031
-0.011
0.025
0.128
0.234
0.324
0.388
0.424
0.38
0.266
0.15
0.06
-0.015
-0.078
-0.072
-0.06
-0.06
-0.059
-0.058
-0.057
-0.054
-0.051
-0.046
-0.033
-0.018
-0.002
0.014
0.03
0.04
0.053
0.067
0.078
0.086
0.093
0.093
0.091
0.089
0.086
0.082
0.076
0.07
0.054
0.038
0.02
0.002
-0.017
-0.025
-0.038
-0.048
-0.056
-0.064
-0.069
-0.069
-0.069
-0.067
-0.067
-0.067
-0.066
-0.066
-0.065
-0.065
-0.064
-0.064
-0.063
-0.062
-0.062
-0.062
-0.062
-0.062
-0.062
-0.062
-0.062
-0.06
-0.059
-0.058
-0.057
-0.056
-0.057
-0.057
-0.057
-0.057
-0.057
-0.057
-0.047
-0.034
-0.021
-0.008
0.006
0.01
0.01
0.009
0.005
-0
-0.008
-0.016
-0.027
-0.036
-0.043
-0.05
-0.053
-0.053
-0.053
-0.054
-0.053
-0.052
-0.051
-0.05
-0.051
-0.04
-0.017
0.016
0.062
0.121
0.209
0.274
0.313
0.324
0.311
0.241
0.141
0.058
-0.007
-0.055
-0.089
-0.078
-0.071
-0.066
-0.064
-0.064
-0.062
-0.061
-0.061
-0.06
-0.057
-0.053
-0.047
-0.04
-0.024
-0.006
0.011
0.027
0.044
0.054
0.063
0.072
0.081
0.086
0.089
0.089
0.086
0.082
0.078
0.07
0.061
0.053
0.034
0.016
-0.001
-0.018
-0.035
-0.044
-0.053
-0.059
-0.063
-0.066
-0.066
-0.065
-0.065
-0.064
-0.063
-0.063
-0.061
-0.06
-0.059
-0.059
-0.058
-0.058
-0.058
-0.057
-0.057
-0.056
-0.055
-0.055
-0.053
-0.053
-0.053
-0.053
-0.052
-0.052
-0.051
-0.05
-0.048
-0.047
-0.045
-0.044
-0.041
-0.037
-0.025
-0.012
0.001
0.013
0.023
0.024
0.016
0.006
-0.006
-0.019
-0.032
-0.037
-0.039
-0.04
-0.04
-0.041
-0.039
-0.039
-0.037
-0.037
-0.036
-0.036
-0.013
0.022
0.07
0.128
0.198
0.254
0.29
0.3
0.287
0.249
0.166
0.091
0.03
-0.018
-0.052
-0.051
-0.05
-0.05
-0.049
-0.048
-0.047
-0.047
-0.039
-0.035
-0.028
-0.019
-0.008
-0.004
0.018
0.036
0.054
0.072
0.088
0.089
0.096
0.1
0.103
0.105
0.106
0.103
0.094
0.086
0.077
0.067
0.055
0.048
0.028
0.011
-0.005
-0.021
-0.037
-0.041
-0.046
-0.051
-0.052
-0.052
-0.051
-0.051
-0.049
-0.049
-0.048
-0.048
-0.048
-0.048
-0.047
-0.048
-0.047
-0.047
-0.047
-0.047
-0.046
-0.046
-0.045
-0.044
-0.044
-0.045
-0.044
-0.045
-0.046
-0.045
-0.045
-0.044
-0.04
-0.034
-0.027
-0.019
-0.011
-0.003
0.007
0.016
0.022
0.026
0.026
0.021
0.009
-0.004
-0.016
-0.027
-0.038
-0.039
-0.041
-0.042
-0.042
-0.042
-0.042
-0.041
-0.04
-0.04
-0.041
-0.046
-0.046
-0.034
0.037
0.121
0.218
0.318
0.401
0.412
0.346
0.255
0.143
0.029
-0.069
-0.094
-0.101
-0.093
-0.079
-0.07
-0.064
-0.064
-0.064
-0.063
-0.062
-0.061
-0.06
-0.058
-0.048
-0.036
-0.022
-0.008
0.008
0.017
0.034
0.049
0.062
0.074
0.083
0.085
0.086
0.087
0.087
0.084
0.081
0.077
0.065
0.051
0.036
0.019
0.001
-0.008
-0.025
-0.039
-0.053
-0.064
-0.074
-0.073
-0.073
-0.072
-0.071
-0.071
-0.071
-0.07
-0.07
-0.069
-0.069
-0.069
-0.069
-0.069
-0.069
-0.068
-0.067
-0.066
-0.065
-0.064
-0.064
-0.063
-0.064
-0.063
-0.062
-0.06
-0.06
-0.058
-0.058
-0.058
-0.058
-0.057
-0.051
-0.042
-0.032
-0.021
-0.009
-0.001
0.004
0.008
0.008
0.006
0.001
-0.005
-0.016
-0.026
-0.036
-0.044
-0.052
-0.053
-0.054
-0.053
-0.055
-0.059
-0.058
-0.046
-0.021
0.018
0.12
0.225
0.31
0.369
0.401
0.358
0.24
0.128
0.032
-0.045
-0.106
-0.095
-0.081
-0.07
-0.064
-0.061
-0.06
-0.06
-0.06
-0.059
-0.059
-0.057
-0.054
-0.049
-0.031
-0.015
0.002
0.02
0.037
0.043
0.058
0.07
0.08
0.089
0.096
0.096
0.094
0.093
0.09
0.087
0.082
0.076
0.06
0.044
0.026
0.008
-0.01
-0.019
-0.032
-0.042
-0.049
-0.056
-0.06
-0.058
-0.057
-0.055
-0.054
-0.054
-0.053
-0.053
-0.054
-0.053
-0.053
-0.054
-0.053
-0.054
-0.054
-0.053
-0.052
-0.051
-0.05
-0.049
-0.048
-0.047
-0.046
-0.045
-0.044
-0.043
-0.043
-0.041
-0.04
-0.04
-0.039
-0.038
-0.028
-0.016
-0.003
0.01
0.023
0.027
0.027
0.025
0.02
0.013
0.004
-0.004
-0.014
-0.021
-0.028
-0.033
-0.035
-0.035
-0.035
-0.034
-0.034
-0.034
-0.033
-0.033
-0.031
-0.015
0.012
0.049
0.098
0.156
0.234
0.289
0.319
0.324
0.303
0.234
0.139
0.063
0.005
-0.039
-0.069
-0.06
-0.055
-0.052
-0.051
-0.05
-0.05
-0.05
-0.05
-0.049
-0.044
-0.038
-0.03
-0.021
-0.004
0.013
0.03
0.046
0.062
0.071
0.08
0.088
0.095
0.1
0.103
0.103
0.099
0.094
0.089
0.08
0.07
0.06
0.041
0.022
0.006
-0.011
-0.027
-0.036
-0.045
-0.052
-0.056
-0.059
-0.059
-0.059
-0.059
-0.059
-0.059
-0.059
-0.06
-0.06
-0.06
-0.06
-0.059
-0.058
-0.058
-0.057
-0.057
-0.056
-0.055
-0.055
-0.054
-0.054
-0.054
-0.054
-0.053
-0.053
-0.053
-0.052
-0.052
-0.052
-0.051
-0.049
-0.045
-0.041
-0.028
-0.015
-0.002
0.009
0.018
0.02
0.015
0.007
-0.006
-0.021
-0.035
-0.043
-0.051
-0.052
-0.051
-0.051
-0.051
-0.05
-0.049
-0.049
-0.025
0.011
0.056
0.113
0.158
0.164
0.143
0.101
0.04
-0.006
-0.037
-0.055
-0.058
-0.056
-0.056
-0.056
-0.056
-0.055
-0.055
-0.054
-0.051
-0.046
-0.039
-0.03
-0.02
-0.012
0.009
0.026
0.043
0.06
0.076
0.077
0.085
0.09
0.093
0.095
0.096
0.092
0.082
0.073
0.064
0.053
0.041
0.034
0.013
-0.005
-0.021
-0.037
-0.053
-0.056
-0.061
-0.064
-0.065
-0.065
-0.064
-0.064
-0.063
-0.062
-0.061
-0.059
-0.059
-0.058
-0.056
-0.056
-0.055
-0.054
-0.054
-0.054
-0.053
-0.052
-0.051
-0.05
-0.049
-0.049
-0.049
-0.049
-0.049
-0.049
-0.048
-0.048
-0.044
-0.043
-0.039
-0.034
-0.028
-0.022
-0.009
0.002
0.012
0.02
0.025
0.022
0.009
-0.005
-0.019
-0.032
-0.044
-0.045
-0.045
-0.044
-0.043
-0.043
-0.041
-0.04
-0.04
-0.04
-0.043
-0.048
-0.045
-0.029
0.047
0.137
0.238
0.336
0.414
0.418
0.344
0.246
0.131
0.022
-0.071
-0.091
-0.091
-0.078
-0.064
-0.054
-0.049
-0.048
-0.048
-0.047
-0.047
-0.047
-0.047
-0.044
-0.033
-0.019
-0.004
0.012
0.028
0.039
0.054
0.068
0.081
0.092
0.099
0.101
0.102
0.102
0.1
0.098
0.095
0.091
0.078
0.064
0.048
0.031
0.013
0.004
-0.012
-0.025
-0.036
-0.046
-0.054
-0.053
-0.052
-0.051
-0.049
-0.048
-0.047
-0.046
-0.046
-0.045
-0.046
-0.046
-0.047
-0.047
-0.046
-0.045
-0.044
-0.043
-0.043
-0.043
-0.042
-0.041
-0.042
-0.042
-0.042
-0.043
-0.042
-0.041
-0.04
-0.039
-0.038
-0.038
-0.029
-0.019
-0.009
0.003
0.015
0.02
0.024
0.028
0.029
0.026
0.021
0.016
0.003
-0.008
-0.018
-0.026
-0.034
-0.033
-0.033
-0.032
-0.032
-0.032
-0.032
-0.032
-0.035
-0.039
-0.036
-0.024
0.002
0.042
0.143
0.246
0.327
0.381
0.41
0.366
0.248
0.137
0.044
-0.031
-0.091
-0.082
-0.068
