0.076
0.072
0.068
0.061
0.054
0.045
0.036
0.025
0.015
0.005
-0.005
-0.014
-0.023
-0.032
-0.04
-0.048
-0.056
-0.061
-0.066
-0.069
-0.069
-0.068
-0.068
-0.067
-0.066
-0.067
-0.066
-0.066
-0.065
-0.065
-0.066
-0.065
-0.065
-0.064
-0.063
-0.061
-0.062
-0.061
-0.061
-0.06
-0.059
-0.056
-0.055
-0.054
-0.053
-0.053
-0.053
-0.054
-0.055
-0.055
-0.055
-0.054
-0.054
-0.053
-0.053
-0.053
-0.053
-0.053
-0.052
-0.052
-0.052
-0.052
-0.051
-0.051
-0.05
-0.05
-0.048
-0.047
-0.047
-0.045
-0.044
-0.044
-0.044
-0.042
-0.039
-0.035
-0.028
-0.019
-0.011
-0.004
0.003
0.01
0.015
0.018
0.021
0.022
0.022
0.02
0.017
0.012
0.005
-0.003
-0.01
-0.019
-0.026
-0.032
-0.037
-0.041
-0.043
-0.044
-0.043
-0.043
-0.043
-0.042
-0.042
-0.043
-0.043
-0.043
-0.044
-0.044
-0.044
-0.043
-0.042
-0.041
-0.039
-0.04
-0.044
-0.049
-0.044
-0.028
0.002
0.046
0.102
0.159
0.217
0.275
0.331
0.378
0.402
0.402
0.352
0.302
0.236
0.168
0.101
0.06
-0.007
-0.058
-0.092
-0.11
-0.109
-0.096
-0.083
-0.074
-0.068
-0.067
-0.066
-0.065
-0.064
-0.064
-0.063
-0.063
-0.063
-0.063
-0.062
-0.062
-0.061
-0.06
-0.059
-0.057
-0.052
-0.047
-0.04
-0.031
-0.021
-0.012
-0.003
0.006
0.019
0.029
0.038
0.049
0.059
0.064
0.071
0.076
0.079
0.081
0.082
0.083
0.084
0.085
0.085
0.085
0.084
0.081
0.079
0.077
0.074
0.07
0.065
0.058
0.049
0.039
0.027
0.016
0.005
-0.005
-0.018
-0.024
-0.032
-0.04
-0.049
-0.052
-0.059
-0.065
-0.068
-0.07
-0.07
-0.069
-0.068
-0.067
-0.065
-0.063
-0.062
-0.062
-0.06
-0.06
-0.06
-0.059
-0.057
-0.056
-0.056
-0.056
-0.054
-0.055
-0.056
-0.055
-0.054
-0.054
-0.054
-0.053
-0.053
-0.052
-0.051
-0.05
-0.049
-0.049
-0.048
-0.048
-0.048
-0.048
-0.048
-0.047
-0.046
-0.045
-0.043
-0.041
-0.041
-0.041
-0.04
-0.039
-0.038
-0.038
-0.037
-0.036
-0.037
-0.037
-0.036
-0.037
-0.036
-0.035
-0.032
-0.027
-0.02
-0.012
-0.003
0.005
0.013
0.019
0.024
0.028
0.031
0.032
0.032
0.031
0.028
0.023
0.017
0.011
0.003
-0.006
-0.015
-0.022
-0.026
-0.03
-0.032
-0.033
-0.035
-0.035
-0.035
-0.034
-0.033
-0.031
-0.03
-0.029
-0.03
-0.031
-0.03
-0.029
-0.029
-0.029
-0.027
-0.027
-0.031
-0.036
-0.031
-0.015
0.013
0.057
0.113
0.172
0.229
0.285
0.34
0.388
0.413
0.413
0.362
0.313
0.247
0.179
0.111
0.072
0.007
-0.045
-0.081
-0.099
-0.1
-0.088
-0.076
-0.067
-0.06
-0.058
-0.057
-0.055
-0.054
-0.054
-0.054
-0.054
-0.052
-0.052
-0.051
-0.049
-0.048
-0.047
-0.046
-0.044
-0.04
-0.034
-0.027
-0.019
-0.009
0.001
0.01
0.02
0.03
0.039
0.048
0.057
0.067
0.076
0.084
0.09
0.095
0.098
0.1
0.101
0.102
0.101
0.101
0.1
0.098
0.096
0.094
0.09
0.086
0.082
0.077
0.07
0.062
0.053
0.038
0.027
0.017
0.007
-0.003
-0.007
-0.016
-0.024
-0.032
-0.04
-0.048
-0.054
-0.058
-0.061
-0.062
-0.06
-0.06
-0.059
-0.059
-0.058
-0.059
-0.059
-0.059
-0.058
-0.058
-0.057
-0.055
-0.054
-0.054
-0.053
-0.052
-0.052
-0.053
-0.052
-0.051
-0.052
-0.052
-0.05
-0.048
-0.048
-0.047
-0.047
-0.048
-0.048
-0.048
-0.047
-0.046
-0.046
-0.044
-0.044
-0.043
-0.042
-0.041
-0.041
-0.041
-0.041
-0.041
-0.041
-0.041
-0.041
-0.04
-0.04
-0.039
-0.039
-0.038
-0.038
-0.038
-0.037
-0.033
-0.027
-0.02
-0.011
-0.001
0.008
0.015
0.021
0.027
0.03
0.033
0.033
0.032
0.03
0.022
0.016
0.011
0.005
-0.002
-0.007
-0.015
-0.023
-0.03
-0.035
-0.038
-0.04
-0.038
-0.038
-0.038
-0.037
-0.036
-0.038
-0.038
-0.037
-0.037
-0.037
-0.037
-0.038
-0.039
-0.039
-0.038
-0.039
-0.042
-0.046
-0.041
-0.025
0.003
0.047
0.102
0.16
0.216
0.272
0.328
0.375
0.4
0.402
0.379
0.33
0.265
0.198
0.13
0.062
-0.004
-0.056
-0.09
-0.108
-0.108
-0.094
-0.082
-0.074
-0.068
-0.067
-0.066
-0.065
-0.064
-0.063
-0.062
-0.061
-0.061
-0.06
-0.059
-0.059
-0.058
-0.058
-0.058
-0.056
-0.052
-0.047
-0.04
-0.031
-0.018
-0.009
-0.001
0.009
0.018
0.022
0.032
0.041
0.05
0.058
0.067
0.073
0.077
0.081
0.083
0.084
0.085
0.086
0.086
0.085
0.084
0.082
0.079
0.076
0.073
0.068
0.064
0.059
0.05
0.041
0.028
0.016
0.005
-0.004
-0.012
-0.018
-0.027
-0.036
-0.045
-0.054
-0.062
-0.067
-0.071
-0.074
-0.074
-0.074
-0.073
-0.072
-0.07
-0.07
-0.07
-0.07
-0.069
-0.069
-0.068
-0.067
-0.065
-0.064
-0.064
-0.064
-0.063
-0.062
-0.063
-0.062
-0.064
-0.064
-0.064
-0.063
-0.062
-0.059
-0.059
-0.058
-0.058
-0.058
-0.056
-0.056
-0.056
-0.055
-0.054
-0.054
-0.053
-0.052
-0.051
-0.051
-0.051
-0.05
-0.048
-0.047
-0.046
-0.045
-0.044
-0.043
-0.043
-0.044
-0.046
-0.046
-0.046
-0.044
-0.041
-0.033
-0.026
-0.018
-0.009
-0.001
0.007
0.013
0.018
0.022
0.025
0.026
0.025
0.024
0.021
0.016
0.01
0.003
-0.004
-0.012
-0.021
-0.028
-0.033
-0.037
-0.041
-0.041
-0.041
-0.041
-0.041
-0.042
-0.042
-0.042
-0.043
-0.042
-0.041
-0.04
-0.039
-0.039
-0.037
-0.036
-0.036
-0.037
-0.04
-0.045
-0.042
-0.026
0.002
0.043
0.098
0.156
0.213
0.269
0.325
0.373
0.4
0.402
0.38
0.333
0.268
0.199
0.105
0.038
-0.027
-0.079
-0.115
-0.106
-0.108
-0.095
-0.083
-0.073
-0.068
-0.065
-0.066
-0.065
-0.064
-0.064
-0.063
-0.062
-0.061
-0.058
-0.057
-0.056
-0.055
-0.054
-0.054
-0.052
-0.048
-0.042
-0.035
-0.026
-0.014
-0.006
0.002
0.011
0.021
0.029
0.039
0.049
0.059
0.068
0.075
0.081
0.086
0.088
0.09
0.091
0.092
0.092
0.093
0.092
0.091
0.09
0.088
0.085
0.081
0.078
0.074
0.067
0.059
0.05
0.04
0.029
0.018
0.008
-0.002
-0.011
-0.021
-0.029
-0.037
-0.046
-0.054
-0.06
-0.063
-0.065
-0.066
-0.064
-0.062
-0.061
-0.06
-0.06
-0.06
-0.061
-0.061
-0.061
-0.06
-0.06
-0.059
-0.057
-0.056
-0.054
-0.053
-0.052
-0.051
-0.051
-0.049
-0.048
-0.048
-0.046
-0.045
-0.046
-0.045
-0.044
-0.044
-0.044
-0.043
-0.043
-0.043
-0.043
-0.043
-0.043
-0.043
-0.042
-0.041
-0.04
-0.038
-0.036
-0.034
-0.032
-0.032
-0.032
-0.032
-0.032
-0.033
-0.032
-0.029
-0.029
-0.029
-0.026
-0.023
-0.02
-0.015
-0.007
0.001
0.009
0.017
0.024
0.031
0.035
0.038
0.039
0.038
0.036
0.032
0.027
0.021
0.013
0.006
-0.002
-0.011
-0.017
-0.022
-0.026
-0.029
-0.03
-0.03
-0.031
-0.031
-0.031
-0.029
-0.029
-0.029
-0.028
-0.027
-0.027
-0.027
-0.027
-0.026
-0.027
-0.026
-0.027
-0.03
-0.034
-0.03
-0.014
0.013
0.054
0.109
0.166
0.222
0.278
0.335
0.385
0.412
0.416
0.395
0.347
0.282
0.215
0.149
0.081
0.015
-0.039
-0.075
-0.095
-0.098
-0.086
-0.074
-0.065
-0.06
-0.058
-0.057
-0.055
-0.054
-0.053
-0.054
-0.054
-0.054
-0.055
-0.055
-0.053
-0.051
-0.049
-0.048
-0.046
-0.043
-0.038
-0.032
-0.023
-0.01
-0
0.009
0.018
0.027
0.032
0.042
0.052
0.061
0.069
0.076
0.082
0.085
0.088
0.09
0.091
0.093
0.094
0.094
0.094
0.093
0.091
0.088
0.085
0.082
0.078
0.073
0.067
0.059
0.05
0.04
0.029
0.018
0.007
-0.002
-0.011
-0.02
-0.029
-0.037
-0.046
-0.055
-0.061
-0.065
-0.068
-0.069
-0.067
-0.066
-0.066
-0.064
-0.063
-0.063
-0.062
-0.06
-0.059
-0.058
-0.057
-0.056
-0.057
-0.057
-0.057
-0.057
-0.057
-0.057
-0.056
-0.055
-0.054
-0.054
-0.055
-0.054
-0.054
-0.054
-0.053
-0.052
-0.052
-0.052
-0.051
-0.05
-0.051
-0.05
-0.05
-0.05
-0.05
-0.049
-0.049
-0.049
-0.049
-0.049
-0.048
-0.048
-0.047
-0.046
-0.045
-0.045
-0.045
-0.044
-0.044
-0.043
-0.042
-0.038
-0.034
-0.028
-0.02
-0.011
-0.003
0.005
0.012
0.017
0.021
0.024
0.026
0.026
0.025
0.022
0.016
0.009
0.002
-0.009
-0.018
-0.026
-0.033
-0.039
-0.041
-0.043
-0.044
-0.043
-0.042
-0.042
-0.042
-0.043
-0.043
-0.044
-0.043
-0.043
-0.043
-0.043
-0.043
-0.043
-0.043
-0.041
-0.04
-0.042
-0.047
-0.043
-0.028
-0.003
0.038
0.092
0.151
0.21
0.267
0.323
0.372
0.401
0.404
0.383
0.337
0.273
0.204
0.111
0.044
-0.02
-0.073
-0.111
-0.106
-0.109
-0.099
-0.086
-0.076
-0.069
-0.067
-0.067
-0.067
-0.067
-0.067
-0.066
-0.065
-0.063
-0.062
-0.061
-0.061
-0.06
-0.06
-0.06
-0.058
-0.054
-0.048
-0.041
-0.032
-0.022
-0.012
-0.004
0.005
0.015
0.024
0.033
0.044
0.055
0.064
0.071
0.077
0.081
0.083
0.084
0.085
0.085
0.086
0.086
0.086
0.085
0.082
0.08
0.077
0.073
0.069
0.065
0.059
0.051
0.042
0.032
0.022
0.012
0.003
-0.008
-0.018
-0.026
-0.034
-0.042
-0.05
-0.058
-0.064
-0.069
-0.071
-0.071
-0.07
-0.069
-0.069
-0.068
-0.068
-0.068
-0.068
-0.067
-0.067
-0.067
-0.066
-0.067
-0.067
-0.067
-0.066
-0.064
-0.061
-0.06
-0.059
-0.057
-0.057
-0.057
-0.056
-0.055
-0.056
-0.055
-0.055
-0.054
-0.054
-0.053
-0.052
-0.052
-0.052
-0.051
-0.05
-0.05
-0.049
-0.047
-0.047
-0.047
-0.047
-0.047
-0.048
-0.047
-0.046
-0.044
-0.043
-0.042
-0.041
-0.04
-0.039
-0.038
-0.037
-0.034
-0.03
-0.025
-0.017
-0.008
0
0.008
0.014
0.019
0.022
0.024
0.025
0.026
0.024
0.022
0.018
0.012
0.006
-0.002
-0.01
-0.017
-0.024
-0.029
-0.032
-0.035
-0.035
-0.033
-0.033
-0.032
-0.032
-0.031
-0.031
-0.031
-0.031
-0.03
-0.03
-0.031
-0.031
-0.031
-0.031
-0.032
-0.032
-0.034
-0.038
-0.035
-0.02
0.006
0.047
0.102
0.158
0.214
0.27
0.327
0.377
0.407
0.413
0.394
0.349
0.284
0.217
0.151
0.083
0.016
-0.038
-0.074
-0.095
-0.098
-0.087
-0.074
-0.066
-0.061
-0.059
-0.058
-0.058
-0.057
-0.056
-0.056
-0.056
-0.056
-0.056
-0.056
-0.055
-0.055
-0.054
-0.054
-0.052
-0.047
-0.04
-0.032
-0.022
-0.011
-0.002
0.007
0.015
0.024
0.033
0.042
0.052
0.062
0.071
0.078
0.083
0.087
0.09
0.093
0.095
0.097
0.098
0.098
0.097
0.096
0.092
0.088
0.085
0.082
0.078
0.075
0.071
0.063
0.054
0.045
0.035
0.024
0.015
0.001
-0.008
-0.016
-0.025
-0.033
-0.036
-0.044
-0.051
-0.056
-0.059
-0.06
-0.059
-0.058
-0.058
-0.057
-0.056
-0.056
-0.056
-0.055
-0.055
-0.054
-0.054
-0.052
-0.051
-0.051
-0.051
-0.049
-0.048
-0.046
-0.045
-0.044
-0.044
-0.045
-0.046
-0.045
-0.044
-0.044
-0.042
-0.04
-0.04
-0.04
-0.04
-0.04
-0.041
-0.041
-0.04
-0.04
-0.04
-0.039
-0.039
-0.039
-0.039
-0.038
-0.037
-0.037
-0.036
-0.035
-0.035
-0.035
-0.035
-0.034
-0.034
-0.033
-0.031
-0.024
-0.019
-0.013
-0.005
0.004
0.009
0.017
0.025
0.03
0.035
0.037
0.037
0.036
0.033
0.031
0.026
0.021
0.014
0.006
-0.003
-0.011
-0.019
-0.024
-0.028
-0.031
-0.032
-0.034
-0.034
-0.035
-0.035
-0.033
-0.032
-0.031
-0.029
-0.029
-0.029
-0.03
-0.03
-0.031
-0.03
-0.029
-0.029
-0.031
-0.036
-0.033
-0.019
0.006
0.047
0.125
0.183
0.24
0.296
0.349
0.373
0.402
0.407
0.388
0.345
0.281
0.212
0.144
0.076
0.01
-0.044
-0.082
-0.103
-0.107
-0.096
-0.082
-0.072
-0.066
-0.063
-0.063
-0.063
-0.062
-0.062
-0.062
-0.062
-0.061
-0.061
-0.061
-0.061
-0.06
-0.06
-0.059
-0.057
-0.053
-0.048
-0.041
-0.033
-0.023
-0.014
-0.005
0.003
0.018
0.027
0.036
0.046
0.057
0.059
0.067
0.073
0.076
0.078
0.079
0.081
0.083
0.084
0.085
0.086
0.084
0.081
0.078
0.074
0.07
0.067
0.063
0.058
0.051
0.043
0.033
0.022
0.012
0.002
-0.007
-0.016
-0.025
-0.034
-0.043
-0.052
-0.061
-0.067
-0.07
-0.072
-0.073
-0.072
-0.072
-0.073
-0.073
-0.073
-0.073
-0.073
-0.072
-0.072
-0.071
-0.07
-0.068
-0.067
-0.067
-0.068
-0.068
-0.067
-0.067
-0.066
-0.064
-0.063
-0.063
-0.063
-0.062
-0.062
-0.062
-0.061
-0.06
-0.059
-0.058
-0.057
-0.056
-0.055
-0.055
-0.055
-0.055
-0.054
-0.053
-0.053
-0.052
-0.052
-0.052
-0.052
-0.052
-0.051
-0.051
-0.05
-0.05
-0.049
-0.049
-0.049
-0.049
-0.048
-0.045
-0.04
-0.033
-0.024
-0.015
-0.006
0.002
0.009
0.014
0.018
0.02
0.021
0.02
0.019
0.017
0.012
0.006
-0.001
-0.008
-0.017
-0.025
-0.033
-0.039
-0.044
-0.047
-0.048
-0.048
-0.049
-0.049
-0.048
-0.047
-0.046
-0.046
-0.046
-0.045
-0.045
-0.044
-0.043
-0.041
-0.042
-0.042
-0.042
-0.046
-0.051
-0.049
-0.035
-0.009
0.031
0.086
0.143
0.2
0.257
0.313
0.364
0.394
0.4
0.382
0.339
0.276
0.208
0.143
0.076
0.01
-0.046
-0.08
-0.101
-0.106
-0.095
-0.082
-0.077
-0.071
-0.069
-0.069
-0.069
-0.068
-0.066
-0.065
-0.064
-0.063
-0.062
-0.063
-0.063
-0.063
-0.062
-0.061
-0.06
-0.056
-0.051
-0.044
-0.035
-0.025
-0.015
-0.005
0.004
0.015
0.024
0.033
0.043
0.055
0.062
0.069
0.075
0.08
0.081
0.083
0.085
0.086
0.086
0.086
0.085
0.084
0.082
0.08
0.077
0.074
0.071
0.066
0.06
0.052
0.044
0.036
0.027
0.018
0.009
-0
-0.009
-0.018
-0.027
-0.035
-0.044
-0.052
-0.059
-0.063
-0.066
-0.067
-0.067
-0.067
-0.067
-0.066
-0.066
-0.066
-0.065
-0.064
-0.062
-0.061
-0.059
-0.057
-0.056
-0.056
-0.056
-0.056
-0.056
-0.056
-0.057
-0.056
-0.055
-0.054
-0.053
-0.051
-0.051
-0.051
-0.05
-0.049
-0.049
-0.049
-0.048
-0.048
-0.047
-0.045
-0.043
-0.042
-0.04
-0.039
-0.039
-0.039
-0.039
-0.039
-0.038
-0.038
-0.037
-0.037
-0.037
-0.037
-0.037
-0.037
-0.037
-0.037
-0.036
-0.032
-0.027
-0.02
-0.012
-0.003
0.005
0.013
0.02
0.026
0.029
0.031
0.031
0.03
0.028
0.026
0.022
0.017
0.011
0.004
-0.004
-0.013
-0.02
-0.025
-0.03
-0.033
-0.034
-0.033
-0.034
-0.034
-0.033
-0.033
-0.032
-0.031
-0.031
-0.029
-0.028
-0.027
-0.026
-0.025
-0.025
-0.025
-0.025
-0.028
-0.034
-0.032
-0.018
0.007
0.046
0.099
0.155
0.212
0.268
0.323
0.373
0.406
0.413
0.397
0.356
0.294
0.227
0.159
0.092
0.025
-0.031
-0.062
-0.085
-0.091
-0.081
-0.067
-0.067
-0.062
-0.058
-0.058
-0.056
-0.055
-0.053
-0.052
-0.052
-0.051
-0.05
-0.05
-0.05
-0.049
-0.048
-0.048
-0.046
-0.043
-0.037
-0.031
-0.022
-0.012
-0.003
0.005
0.014
0.023
0.031
0.041
0.051
0.061
0.07
0.078
0.084
0.09
0.093
0.095
0.097
0.099
0.098
0.098
0.098
0.095
0.093
0.091
0.088
0.085
0.082
0.078
0.072
0.064
0.055
0.045
0.033
0.022
0.012
0.004
-0.005
-0.014
-0.022
-0.031
-0.04
-0.048
-0.054
-0.06
-0.064
-0.065
-0.064
-0.063
-0.06
-0.059
-0.058
-0.057
-0.057
-0.056
-0.057
-0.057
-0.056
-0.056
-0.055
-0.054
-0.054
-0.053
-0.052
-0.051
-0.05
-0.05
-0.05
-0.05
-0.05
-0.051
-0.051
-0.051
-0.05
-0.05
-0.048
-0.048
-0.046
-0.046
-0.046
-0.045
-0.044
-0.043
-0.044
-0.043
-0.042
-0.042
-0.042
-0.042
-0.042
-0.043
-0.043
-0.043
-0.042
-0.041
-0.041
-0.039
-0.039
-0.038
-0.037
-0.034
-0.03
-0.024
-0.016
-0.008
0
0.008
0.015
0.022
0.027
0.03
0.031
0.031
0.029
0.027
0.023
0.017
0.01
0.003
-0.006
-0.016
-0.024
-0.03
-0.035
-0.039
-0.04
-0.04
-0.039
-0.039
-0.039
-0.038
-0.039
-0.04
-0.04
-0.042
-0.042
-0.042
-0.041
-0.04
-0.038
-0.038
-0.037
-0.04
-0.046
-0.044
-0.031
-0.007
0.031
0.085
0.142
0.199
0.255
0.312
0.364
0.396
0.404
0.387
0.346
0.282
0.214
0.148
0.081
0.014
-0.042
-0.082
-0.104
-0.11
-0.1
-0.086
-0.076
-0.069
-0.066
-0.065
-0.065
-0.064
-0.063
-0.063
-0.063
-0.062
-0.062
-0.062
-0.061
-0.06
-0.06
-0.06
-0.059
-0.055
-0.05
-0.043
-0.034
-0.023
-0.014
-0.005
0.004
0.013
0.021
0.03
0.04
0.05
0.059
0.066
0.073
0.077
0.08
0.081
0.083
0.084
0.085
0.085
0.085
0.083
0.081
0.079
0.076
0.072
0.069
0.066
0.06
0.054
0.045
0.035
0.025
0.015
0.004
-0.005
-0.014
-0.023
-0.032
-0.043
-0.051
-0.059
-0.065
-0.07
-0.071
-0.073
-0.073
-0.073
-0.073
-0.072
-0.071
-0.07
-0.069
-0.067
-0.066
-0.065
-0.065
-0.064
-0.064
-0.064
-0.063
-0.062
-0.06
-0.06
-0.058
-0.057
-0.056
-0.055
-0.054
-0.053
-0.053
-0.054
-0.054
-0.053
-0.053
-0.053
-0.053
-0.052
-0.051
-0.051
-0.051
-0.049
-0.049
-0.048
-0.047
-0.047
-0.048
-0.047
-0.047
-0.047
-0.046
-0.045
-0.044
-0.044
-0.044
-0.043
-0.043
-0.043
-0.042
-0.039
-0.033
-0.027
-0.019
-0.004
0.005
0.012
0.019
0.025
0.024
0.027
0.027
0.026
0.024
0.022
0.017
0.011
0.005
-0.002
-0.011
-0.019
-0.027
-0.033
-0.038
-0.041
-0.042
-0.042
-0.042
-0.042
-0.04
-0.04
-0.04
-0.04
-0.04
-0.037
-0.036
-0.035
-0.033
-0.032
-0.035
-0.036
-0.037
-0.04
-0.045
-0.044
-0.031
-0.006
0.032
0.084
0.142
0.199
0.257
0.312
0.363
0.396
0.405
0.39
0.349
0.289
0.223
0.155
0.088
0.021
-0.036
-0.076
-0.1
-0.106
-0.096
-0.082
-0.072
-0.065
-0.063
-0.062
-0.061
-0.06
-0.059
-0.057
-0.058
-0.057
-0.057
-0.058
-0.057
-0.056
-0.055
-0.054
-0.053
-0.049
-0.045
-0.04
-0.032
-0.022
-0.012
-0.002
0.008
0.019
0.029
0.038
0.048
0.061
0.069
0.077
0.085
0.09
0.091
0.093
0.094
0.094
0.094
0.094
0.094
0.093
0.09
0.089
0.086
0.084
0.081
0.077
0.072
0.065
0.056
0.046
0.035
0.025
0.014
0.004
-0.004
-0.013
-0.021
-0.034
-0.043
-0.051
-0.058
-0.062
-0.06
-0.061
-0.061
-0.06
-0.06
-0.059
-0.058
-0.057
-0.056
-0.055
-0.054
-0.054
-0.053
-0.053
-0.053
-0.054
-0.054
-0.054
-0.054
-0.053
-0.052
-0.052
-0.051
-0.05
-0.049
-0.048
-0.048
-0.047
-0.047
-0.046
-0.045
-0.045
-0.043
-0.042
-0.041
-0.042
-0.042
-0.042
-0.042
-0.041
-0.04
-0.039
-0.038
-0.039
-0.039
-0.04
-0.039
-0.039
-0.038
-0.038
-0.037
-0.036
-0.036
-0.036
-0.034
-0.031
-0.026
-0.019
-0.01
-0.001
0.008
0.014
0.021
0.027
0.031
0.034
0.036
0.035
0.033
0.03
0.025
0.019
0.012
0.006
-0.002
-0.011
-0.018
-0.024
-0.029
-0.032
-0.033
-0.033
-0.033
-0.033
-0.033
-0.032
-0.032
-0.032
-0.032
-0.031
-0.031
-0.029
-0.027
-0.025
-0.025
-0.024
-0.024
-0.026
-0.032
-0.032
-0.021
0.002
0.04
0.092
0.15
0.207
0.263
0.319
0.371
0.406
0.416
0.401
0.361
0.298
0.23
0.162
0.096
0.029
-0.03
-0.071
-0.095
-0.103
-0.094
-0.08
-0.069
-0.063
-0.06
-0.058
-0.058
-0.057
-0.057
-0.056
-0.056
-0.056
-0.055
-0.054
-0.054
-0.053
-0.053
-0.053
-0.052
-0.048
-0.043
-0.036
-0.027
-0.018
-0.009
0
0.009
0.017
0.026
0.034
0.044
0.054
0.064
0.071
0.078
0.084
0.088
0.09
0.091
0.092
0.092
0.092
0.092
0.091
0.089
0.086
0.084
0.08
0.077
0.073
0.067
0.06
0.052
0.042
0.031
0.02
0.009
-0.001
-0.01
-0.018
-0.026
-0.035
-0.043
-0.051
-0.058
-0.062
-0.065
-0.066
-0.065
-0.064
-0.064
-0.064
-0.064
-0.064
-0.064
-0.064
-0.063
-0.061
-0.06
-0.06
-0.06
-0.06
-0.06
-0.059
-0.059
-0.058
-0.058
-0.057
-0.056
-0.056
-0.057
-0.056
-0.055
-0.056
-0.056
-0.054
-0.054
-0.055
-0.054
-0.053
-0.054
-0.053
-0.051
-0.051
-0.05
-0.05
-0.049
-0.049
-0.049
-0.047
-0.047
-0.047
-0.046
-0.046
-0.046
-0.046
-0.046
-0.046
-0.045
-0.045
-0.043
-0.04
-0.035
-0.029
-0.021
-0.007
0.003
0.01
0.018
0.024
0.023
0.025
0.026
0.026
0.025
0.022
0.018
0.012
0.005
-0.002
-0.01
-0.018
-0.026
-0.032
-0.036
-0.04
-0.04
-0.041
-0.042
-0.043
-0.043
-0.043
-0.042
-0.041
-0.041
-0.04
-0.04
-0.04
-0.04
-0.039
-0.038
-0.037
-0.037
-0.039
-0.044
-0.044
-0.032
-0.009
0.027
0.077
0.134
0.192
0.249
0.305
0.357
0.391
0.402
0.388
0.349
0.289
0.222
0.155
0.089
0.023
-0.034
-0.075
-0.101
-0.11
-0.101
-0.089
-0.079
-0.072
-0.069
-0.068
-0.066
-0.065
-0.065
-0.065
-0.065
-0.064
-0.063
-0.063
-0.062
-0.061
-0.061
-0.06
-0.059
-0.055
-0.051
-0.044
-0.036
-0.027
-0.017
-0.008
0
0.01
0.019
0.029
0.038
0.049
0.057
0.065
0.07
0.075
0.077
0.079
0.081
0.083
0.084
0.084
0.084
0.082
0.079
0.076
0.075
0.072
0.07
0.066
0.06
0.052
0.043
0.033
0.022
0.011
0.001
-0.008
-0.017
-0.025
-0.033
-0.04
-0.048
-0.056
-0.063
-0.07
-0.074
-0.075
-0.074
-0.073
-0.07
-0.068
-0.067
-0.067
-0.068
-0.068
-0.068
-0.068
-0.068
-0.067
-0.066
-0.066
-0.065
-0.064
-0.062
-0.062
-0.061
-0.06
-0.059
-0.058
-0.057
-0.054
-0.053
-0.053
-0.053
-0.053
-0.053
-0.053
-0.052
-0.052
-0.051
-0.051
-0.05
-0.049
-0.049
-0.048
-0.047
-0.047
-0.047
-0.046
-0.046
-0.047
-0.046
-0.045
-0.044
-0.044
-0.043
-0.042
-0.042
-0.041
-0.041
-0.038
-0.034
-0.028
-0.02
-0.011
-0.002
0.006
0.014
0.021
0.025
0.027
0.028
0.028
0.027
0.024
0.021
0.015
0.008
0
-0.008
-0.017
-0.024
-0.029
-0.032
-0.035
-0.036
-0.036
-0.036
-0.037
-0.036
-0.036
-0.036
-0.036
-0.035
-0.036
-0.035
-0.035
-0.035
-0.032
-0.031
-0.031
-0.029
-0.03
-0.037
-0.038
-0.027
-0.005
0.031
0.082
0.142
0.199
0.255
0.312
0.366
0.403
0.415
0.403
0.365
0.304
0.235
0.168
0.102
0.035
-0.025
-0.067
-0.092
-0.101
-0.093
-0.077
-0.067
-0.061
-0.058
-0.055
-0.056
-0.056
-0.055
-0.054
-0.056
-0.055
-0.053
-0.053
-0.053
-0.052
-0.051
-0.05
-0.049
-0.046
-0.041
-0.035
-0.026
-0.016
-0.007
0.002
0.012
0.022
0.032
0.042
0.052
0.064
0.074
0.083
0.09
0.095
0.098
0.098
0.099
0.101
0.101
0.101
0.101
0.099
0.097
0.094
0.092
0.088
0.084
0.08
0.074
0.066
0.057
0.048
0.037
0.026
0.016
0.006
-0.004
-0.012
-0.021
-0.03
-0.039
-0.047
-0.053
-0.057
-0.059
-0.061
-0.06
-0.059
-0.06
-0.059
-0.058
-0.056
-0.056
-0.054
-0.053
-0.053
-0.053
-0.051
-0.051
-0.05
-0.05
-0.048
-0.048
-0.048
-0.048
-0.047
-0.046
-0.046
-0.046
-0.046
-0.047
-0.047
-0.047
-0.046
-0.045
-0.045
-0.044
-0.042
-0.041
-0.041
-0.04
-0.04
-0.04
-0.039
-0.039
-0.039
-0.038
-0.038
-0.038
-0.037
-0.037
-0.036
-0.036
-0.036
-0.036
-0.036
-0.036
-0.035
-0.034
-0.03
-0.025
-0.02
-0.013
-0.005
0.003
0.01
0.017
0.022
0.027
0.029
0.031
0.031
0.031
0.029
0.025
0.019
0.013
0.005
-0.003
-0.012
-0.019
-0.025
-0.03
-0.033
-0.035
-0.037
-0.039
-0.039
-0.039
-0.039
-0.038
-0.037
-0.036
-0.035
-0.035
-0.034
-0.032
-0.033
-0.033
-0.032
-0.031
-0.033
-0.036
-0.037
-0.026
-0.004
0.031
0.082
0.139
0.196
0.253
0.309
0.362
0.398
0.41
0.398
0.361
0.302
0.235
0.168
0.101
0.033
-0.026
-0.069
-0.096
-0.105
-0.097
-0.083
-0.073
-0.066
-0.063
-0.064
-0.064
-0.063
-0.063
-0.063
-0.062
-0.062
-0.061
-0.061
-0.061
-0.059
-0.058
-0.057
-0.055
-0.052
-0.046
-0.04
-0.032
-0.022
-0.013
-0.005
0.003
0.011
0.021
0.03
0.04
0.05
0.059
0.066
0.073
0.077
0.08
0.083
0.085
0.086
0.087
0.088
0.087
0.086
0.084
0.082
0.08
0.077
0.073
0.069
0.063
0.055
0.046
0.036
0.025
0.013
0.004
-0.006
-0.015
-0.024
-0.032
-0.041
-0.05
-0.059
-0.065
-0.071
-0.073
-0.074
-0.074
-0.073
-0.071
-0.07
-0.07
-0.069
-0.069
-0.069
-0.068
-0.068
-0.067
-0.066
-0.065
-0.065
-0.065
-0.064
-0.064
-0.064
-0.064
-0.063
-0.062
-0.062
-0.061
-0.061
-0.061
-0.06
-0.06
-0.059
-0.058
-0.058
-0.057
-0.056
-0.055
-0.055
-0.054
-0.053
-0.052
-0.052
-0.051
-0.051
-0.052
-0.051
-0.05
-0.05
-0.049
-0.048
-0.047
-0.046
-0.045
-0.043
-0.043
-0.044
-0.043
-0.041
-0.037
-0.032
-0.025
-0.016
-0.008
-0
0.007
0.015
0.019
0.022
0.025
0.025
0.022
0.02
0.016
0.01
0.003
-0.005
-0.014
-0.024
-0.032
-0.038
-0.043
-0.046
-0.047
-0.047
-0.046
-0.045
-0.045
-0.045
-0.044
-0.045
-0.045
-0.043
-0.043
-0.042
-0.041
-0.04
-0.04
-0.039
-0.039
-0.04
-0.046
-0.047
-0.037
-0.015
0.019
0.07
0.128
0.186
0.243
0.299
0.354
0.392
0.406
0.395
0.358
0.299
0.231
0.164
0.098
0.031
-0.029
-0.073
-0.1
-0.11
-0.103
-0.089
-0.078
-0.071
-0.068
-0.067
-0.066
-0.066
-0.065
-0.064
-0.064
-0.063
-0.062
-0.062
-0.062
-0.061
-0.06
-0.059
-0.058
-0.055
-0.05
-0.043
-0.035
-0.024
-0.014
-0.005
0.003
0.012
0.02
0.028
0.038
0.048
0.058
0.066
0.073
0.081
0.085
0.087
0.089
0.091
0.088
0.089
0.088
0.086
0.085
0.083
0.081
0.078
0.075
0.071
0.065
0.058
0.05
0.04
0.029
0.018
0.007
-0.003
-0.012
-0.021
-0.029
-0.037
-0.046
-0.055
-0.061
-0.065
-0.068
-0.069
-0.068
-0.066
-0.066
-0.066
-0.065
-0.064
-0.064
-0.064
-0.063
-0.063
-0.063
-0.062
-0.06
-0.059
-0.058
-0.057
-0.057
-0.057
-0.056
-0.054
-0.054
-0.053
-0.053
-0.052
-0.053
-0.053
-0.052
-0.051
-0.051
-0.05
-0.05
-0.048
-0.047
-0.047
-0.046
-0.047
-0.047
-0.047
-0.046
-0.046
-0.044
-0.044
-0.043
-0.042
-0.041
-0.04
-0.039
-0.038
-0.038
-0.038
-0.037
-0.037
-0.037
-0.035
-0.03
-0.025
-0.017
-0.008
0.002
0.01
0.018
0.022
0.026
0.028
0.03
0.03
0.031
0.029
0.026
0.021
0.015
0.008
0
-0.008
-0.016
-0.021
-0.025
-0.029
-0.031
-0.032
-0.033
-0.034
-0.034
-0.033
-0.032
-0.032
-0.032
-0.031
-0.031
-0.031
-0.03
-0.03
-0.03
-0.029
-0.029
-0.029
-0.034
-0.035
-0.025
-0.002
0.033
0.083
0.14
0.199
0.256
0.312
0.365
0.404
0.416
0.405
0.369
0.311
0.243
0.175
0.107
0.039
-0.021
-0.065
-0.091
-0.1
-0.093
-0.078
-0.065
-0.059
-0.055
-0.053
-0.053
-0.053
-0.051
-0.05
-0.05
-0.05
-0.049
-0.048
-0.047
-0.045
-0.043
-0.042
-0.04
-0.036
-0.031
-0.025
-0.018
-0.009
-0.001
0.007
0.014
0.022
0.031
0.041
0.05
0.06
0.069
0.077
0.085
0.09
0.094
0.096
0.098
0.098
0.099
0.1
0.099
0.098
0.097
0.094
0.091
0.088
0.084
0.08
0.075
0.068
0.059
0.049
0.038
0.026
0.017
0.007
-0.003
-0.012
-0.02
-0.029
-0.038
-0.047
-0.053
-0.059
-0.063
-0.064
-0.064
-0.062
-0.061
-0.059
-0.057
-0.057
-0.058
-0.057
-0.057
-0.057
-0.056
-0.055
-0.055
-0.054
-0.053
-0.052
-0.051
-0.051
-0.051
-0.05
-0.05
-0.051
-0.051
-0.05
-0.049
-0.049
-0.048
-0.047
-0.047
-0.047
-0.047
-0.045
-0.046
-0.046
-0.045
-0.045
-0.046
-0.046
-0.045
-0.045
-0.045
-0.044
-0.043
-0.042
-0.042
-0.041
-0.04
-0.04
-0.04
-0.039
-0.039
-0.039
-0.038
-0.036
-0.032
-0.026
-0.019
-0.011
-0.003
0.004
0.011
0.017
0.022
0.024
0.025
0.026
0.024
0.023
0.02
0.015
0.009
0.003
-0.005
-0.013
-0.021
-0.027
-0.033
-0.036
-0.038
-0.039
-0.04
-0.041
-0.042
-0.042
-0.043
-0.043
-0.042
-0.041
-0.04
-0.04
-0.039
-0.039
-0.039
-0.039
-0.038
-0.039
-0.043
-0.044
-0.033
-0.012
0.021
0.07
0.127
0.183
0.239
0.295
0.35
0.391
0.407
0.398
0.363
0.305
0.237
0.169
0.102
0.035
-0.027
-0.073
-0.1
-0.11
-0.103
-0.088
-0.077
-0.07
-0.066
-0.064
-0.064
-0.064
-0.062
-0.062
-0.062
-0.061
-0.061
-0.061
-0.061
-0.061
-0.06
-0.06
-0.059
-0.056
-0.051
-0.045
-0.037
-0.026
-0.017
-0.009
0
0.009
0.018
0.027
0.036
0.046
0.054
0.062
0.069
0.076
0.08
0.083
0.086
0.086
0.086
0.086
0.087
0.085
0.085
0.083
0.08
0.076
0.072
0.068
0.062
0.054
0.044
0.034
0.024
0.014
0.004
-0.005
-0.015
-0.023
-0.032
-0.04
-0.049
-0.057
-0.065
-0.069
-0.073
-0.075
-0.074
-0.073
-0.073
-0.072
-0.071
-0.071
-0.071
-0.071
-0.07
-0.069
-0.068
-0.066
-0.065
-0.064
-0.064
-0.064
-0.063
-0.064
-0.063
-0.062
-0.062
-0.061
-0.059
-0.058
-0.057
-0.056
-0.056
-0.056
-0.056
-0.056
-0.056
-0.057
-0.057
-0.055
-0.054
-0.052
-0.048
-0.047
-0.047
-0.046
-0.047
-0.048
-0.048
-0.047
-0.047
-0.047
-0.047
-0.048
-0.048
-0.047
-0.047
-0.047
-0.046
-0.043
-0.04
-0.035
-0.027
-0.019
-0.01
-0.002
0.006
0.012
0.017
0.019
0.021
0.022
0.021
0.02
0.017
0.013
0.006
-0.001
-0.009
-0.018
-0.027
-0.032
-0.038
-0.041
-0.042
-0.042
-0.043
-0.043
-0.042
-0.041
-0.041
-0.04
-0.041
-0.041
-0.043
-0.042
-0.041
-0.04
-0.039
-0.039
-0.04
-0.043
-0.047
-0.049
-0.039
-0.018
0.017
0.065
0.122
0.18
0.237
0.296
0.351
0.391
0.407
0.398
0.364
0.307
0.241
0.174
0.105
0.037
-0.026
-0.07
-0.098
-0.11
-0.105
-0.09
-0.079
-0.072
-0.068
-0.066
-0.065
-0.065
-0.063
-0.062
-0.061
-0.06
-0.059
-0.058
-0.056
-0.055
-0.055
-0.054
-0.054
-0.052
-0.048
-0.042
-0.034
-0.024
-0.014
-0.005
0.004
0.014
0.023
0.038
0.047
0.058
0.067
0.076
0.077
0.083
0.087
0.089
0.09
0.091
0.091
0.091
0.092
0.092
0.091
0.089
0.086
0.084
0.08
0.076
0.07
0.063
0.055
0.045
0.034
0.023
0.014
0.005
-0.005
-0.013
-0.023
-0.032
-0.041
-0.049
-0.056
-0.06
-0.063
-0.064
-0.064
-0.061
-0.062
-0.062
-0.061
-0.06
-0.062
-0.061
-0.06
-0.059
-0.058
-0.057
-0.055
-0.055
-0.054
-0.053
-0.052
-0.052
-0.051
-0.05
-0.05
-0.05
-0.049
-0.049
-0.048
-0.047
-0.046
-0.045
-0.044
-0.044
-0.044
-0.041
-0.041
-0.041
-0.04
-0.039
-0.041
-0.041
-0.041
-0.04
-0.04
-0.04
-0.039
-0.038
-0.038
-0.037
-0.036
-0.034
-0.034
-0.033
-0.032
-0.032
-0.032
-0.03
-0.026
-0.021
-0.013
-0.005
0.004
0.012
0.019
0.026
0.032
0.036
0.037
0.037
0.036
0.033
0.029
0.025
0.019
0.012
0.004
-0.004
-0.013
-0.02
-0.025
-0.028
-0.03
-0.03
-0.03
-0.03
-0.029
-0.029
-0.029
-0.029
-0.028
-0.028
-0.028
-0.027
-0.026
-0.026
-0.026
-0.026
-0.025
-0.027
-0.031
-0.033
-0.023
-0.002
0.031
0.079
0.136
0.193
0.249
0.305
0.361
0.402
0.419
0.411
0.378
0.321
0.252
0.184
0.117
0.05
-0.012
-0.058
-0.087
-0.1
-0.094
-0.08
-0.068
-0.059
-0.055
-0.053
-0.053
-0.054
-0.055
-0.055
-0.054
-0.054
-0.053
-0.051
-0.05
-0.049
-0.048
-0.048
-0.047
-0.045
-0.04
-0.034
-0.026
-0.017
-0.008
0
0.009
0.019
0.028
0.038
0.049
0.059
0.068
0.075
0.081
0.086
0.088
0.091
0.093
0.091
0.092
0.092
0.092
0.091
0.091
0.089
0.087
0.084
0.08
0.077
0.071
0.064
0.056
0.047
0.036
0.025
0.015
0.005
-0.006
-0.015
-0.024
-0.032
-0.041
-0.05
-0.058
-0.063
-0.068
-0.071
-0.071
-0.073
-0.072
-0.071
-0.069
-0.067
-0.064
-0.063
-0.062
-0.061
-0.059
-0.058
-0.057
-0.056
-0.056
-0.057
-0.057
-0.057
-0.057
-0.057
-0.056
-0.055
-0.054
-0.053
-0.052
-0.052
-0.053
-0.053
-0.054
-0.055
-0.054
-0.053
-0.053
-0.053
-0.053
-0.054
-0.054
-0.054
-0.052
-0.051
-0.049
-0.048
-0.047
-0.047
-0.047
-0.047
-0.047
-0.047
-0.047
-0.046
-0.045
-0.044
-0.044
-0.041
-0.037
-0.031
-0.024
-0.015
-0.007
0
0.008
0.014
0.019
0.022
0.024
0.022
0.02
0.017
0.014
0.009
0.004
-0.004
-0.012
-0.02
-0.029
-0.035
-0.039
-0.043
-0.045
-0.046
-0.046
-0.046
-0.045
-0.044
-0.043
-0.042
-0.041
-0.041
-0.04
-0.04
-0.039
-0.039
-0.039
-0.04
-0.04
-0.041
-0.045
-0.047
-0.038
-0.017
0.017
0.064
0.121
0.178
0.235
0.291
0.346
0.387
0.403
0.395
0.363
0.306
0.239
0.172
0.104
0.036
-0.027
-0.073
-0.102
-0.113
-0.108
-0.094
-0.081
-0.074
-0.071
-0.07
-0.071
-0.072
-0.071
-0.07
-0.069
-0.068
-0.067
-0.065
-0.064
-0.064
-0.062
-0.061
-0.059
-0.057
-0.052
-0.046
-0.038
-0.03
-0.021
-0.011
-0.001
0.009
0.018
0.027
0.037
0.046
0.055
0.063
0.07
0.076
0.08
0.083
0.084
0.087
0.089
0.089
0.089
0.089
0.085
0.082
0.079
0.076
0.072
0.068
0.062
0.055
0.046
0.037
0.026
0.016
0.007
-0.002
-0.011
-0.02
-0.029
-0.038
-0.047
-0.056
-0.064
-0.069
-0.072
-0.073
-0.072
-0.071
-0.07
-0.069
-0.069
-0.067
-0.068
-0.067
-0.067
-0.067
-0.067
-0.067
-0.066
-0.066
-0.065
-0.064
-0.064
-0.064
-0.064
-0.063
-0.061
-0.061
-0.06
-0.06
-0.06
-0.06
-0.06
-0.058
-0.058
-0.057
-0.055
-0.054
-0.053
-0.052
-0.052
-0.05
-0.049
-0.048
-0.047
-0.047
-0.047
-0.047
-0.047
-0.046
-0.046
-0.045
-0.044
-0.044
-0.044
-0.042
-0.042
-0.042
-0.042
-0.039
-0.035
-0.03
-0.023
-0.014
-0.004
0.005
0.012
0.019
0.024
0.027
0.028
0.027
0.027
0.024
0.021
0.015
0.011
0.003
-0.005
-0.013
-0.022
-0.028
-0.033
-0.036
-0.038
-0.039
-0.039
-0.039
-0.039
-0.038
-0.038
-0.038
-0.038
-0.038
-0.039
-0.039
-0.038
-0.036
-0.035
-0.035
-0.034
-0.035
-0.039
-0.042
-0.033
0.009
0.042
0.09
0.149
0.207
0.241
0.296
0.35
0.392
0.41
0.404
0.373
0.318
0.251
0.183
0.116
0.049
-0.013
-0.061
-0.091
-0.104
-0.099
-0.085
-0.073
-0.066
-0.061
-0.06
-0.059
-0.058
-0.057
-0.057
-0.056
-0.056
-0.055
-0.055
-0.054
-0.053
-0.053
-0.052
-0.052
-0.05
-0.045
-0.039
-0.03
-0.02
-0.011
-0.003
0.005
0.014
0.023
0.032
0.043
0.054
0.064
0.073
0.081
0.087
0.091
0.093
0.095
0.094
0.094
0.093
0.093
0.093
0.094
0.091
0.089
0.087
0.083
0.079
0.073
0.067
0.058
0.047
0.037
0.026
0.015
0.005
-0.003
-0.011
-0.02
-0.027
-0.035
-0.043
-0.05
-0.054
-0.056
-0.057
-0.056
-0.054
-0.054
-0.055
-0.054
-0.055
-0.055
-0.054
-0.054
-0.054
-0.054
-0.053
-0.053
-0.053
-0.052
-0.052
-0.052
-0.052
-0.051
-0.05
-0.049
-0.049
-0.048
-0.047
-0.046
-0.045
-0.044
-0.043
-0.043
-0.042
-0.042
-0.04
-0.039
-0.039
-0.038
-0.039
-0.039
-0.04
-0.04
-0.039
-0.039
-0.038
-0.037
-0.036
-0.035
-0.034
-0.034
-0.034
-0.033
-0.034
-0.033
-0.033
-0.032
-0.029
-0.024
-0.02
-0.014
-0.006
0.002
0.009
0.016
0.023
0.027
0.03
0.033
0.034
0.034
0.032
0.028
0.023
0.016
0.009
0.001
-0.007
-0.014
-0.021
-0.026
-0.03
-0.033
-0.033
-0.033
-0.034
-0.034
-0.033
-0.034
-0.035
-0.035
-0.035
-0.036
-0.036
-0.035
-0.034
-0.034
-0.035
-0.035
-0.036
-0.04
-0.043
-0.035
-0.014
0.019
0.066
0.123
0.18
0.236
0.292
0.346
0.388
0.407
0.402
0.371
0.318
0.251
0.185
0.118
0.05
-0.013
-0.06
-0.09
-0.104
-0.101
-0.087
-0.075
-0.068
-0.064
-0.063
-0.063
-0.062
-0.061
-0.06
-0.06
-0.061
-0.061
-0.06
-0.06
-0.058
-0.057
-0.055
-0.054
-0.052
-0.048
-0.042
-0.035
-0.026
-0.016
-0.007
0.002
0.011
0.02
0.029
0.038
0.047
0.057
0.065
0.073
0.079
0.084
0.087
0.088
0.089
0.09
0.089
0.089
0.089
0.087
0.085
0.082
0.079
0.075
0.07
0.065
0.058
0.049
0.04
0.029
0.018
0.007
-0.002
-0.011
-0.02
-0.029
-0.037
-0.046
-0.056
-0.063
-0.069
-0.073
-0.075
-0.075
-0.074
-0.073
-0.072
-0.071
-0.071
-0.07
-0.069
-0.067
-0.067
-0.067
-0.066
-0.067
-0.067
-0.066
-0.065
-0.064
-0.063
-0.063
-0.062
-0.062
-0.062
-0.062
-0.06
-0.06
-0.059
-0.059
-0.058
-0.058
-0.058
-0.058
-0.057
-0.057
-0.058
-0.058
-0.058
-0.058
-0.057
-0.055
-0.054
-0.053
-0.053
-0.052
-0.051
-0.05
-0.048
-0.048
-0.047
-0.048
-0.047
-0.046
-0.046
-0.044
-0.042
-0.038
-0.032
-0.025
-0.016
-0.007
0
0.007
0.013
0.017
0.02
0.022
0.023
0.022
0.02
0.016
0.012
0.005
-0.002
-0.01
-0.018
-0.026
-0.032
-0.036
-0.039
-0.04
-0.041
-0.041
-0.041
-0.042
-0.042
-0.041
-0.042
-0.042
-0.042
-0.041
-0.04
-0.039
-0.038
-0.038
-0.038
-0.038
-0.039
-0.043
-0.046
-0.039
0
0.031
0.077
0.135
0.193
0.227
0.282
0.337
0.38
0.4
0.396
0.367
0.314
0.246
0.178
0.112
0.045
-0.018
-0.067
-0.098
-0.112
-0.109
-0.094
-0.082
-0.074
-0.069
-0.067
-0.067
-0.067
-0.066
-0.067
-0.066
-0.066
-0.065
-0.065
-0.063
-0.063
-0.062
-0.062
-0.06
-0.057
-0.052
-0.046
-0.038
-0.028
-0.019
-0.01
-0.001
0.007
0.016
0.026
0.036
0.046
0.056
0.065
0.072
0.077
0.081
0.084
0.086
0.088
0.09
0.091
0.091
0.091
0.088
0.085
0.083
0.08
0.077
0.072
0.068
0.061
0.052
0.042
0.032
0.021
0.011
0.002
-0.006
-0.014
-0.022
-0.031
-0.04
-0.049
-0.057
-0.063
-0.067
-0.069
-0.07
-0.07
-0.07
-0.069
-0.068
-0.066
-0.065
-0.064
-0.062
-0.061
-0.061
-0.061
-0.06
-0.06
-0.061
-0.059
-0.059
-0.058
-0.057
-0.056
-0.056
-0.056
-0.055
-0.055
-0.054
-0.054
-0.054
-0.053
-0.053
-0.052
-0.051
-0.049
-0.048
-0.046
-0.045
-0.044
-0.043
-0.043
-0.043
-0.041
-0.041
-0.04
-0.039
-0.039
-0.041
-0.04
-0.039
-0.039
-0.039
-0.039
-0.039
-0.039
-0.039
-0.036
-0.032
-0.026
-0.018
-0.009
-0.001
0.007
0.015
0.021
0.025
0.028
0.03
0.03
0.029
0.026
0.022
0.017
0.011
0.003
-0.005
-0.013
-0.02
-0.026
-0.03
-0.033
-0.035
-0.035
-0.035
-0.035
-0.034
-0.033
-0.033
-0.033
-0.033
-0.032
-0.032
-0.032
-0.031
-0.03
-0.03
-0.03
-0.03
-0.031
-0.036
-0.038
-0.029
0.018
0.052
0.101
0.159
0.216
0.246
0.302
0.357
0.398
0.415
0.408
0.376
0.32
0.251
0.183
0.115
0.047
-0.015
-0.061
-0.088
-0.1
-0.095
-0.081
-0.07
-0.062
-0.058
-0.055
-0.054
-0.052
-0.051
-0.05
-0.05
-0.051
-0.051
-0.051
-0.051
-0.051
-0.049
-0.048
-0.048
-0.045
-0.041
-0.035
-0.029
-0.02
-0.01
-0.001
0.007
0.017
0.026
0.035
0.045
0.056
0.066
0.074
0.081
0.087
0.09
0.093
0.094
0.096
0.096
0.097
0.098
0.096
0.095
0.093
0.09
0.087
0.085
0.08
0.074
0.066
0.058
0.049
0.039
0.028
0.018
0.009
0
-0.008
-0.017
-0.026
-0.035
-0.045
-0.053
-0.058
-0.061
-0.062
-0.062
-0.061
-0.06
-0.061
-0.061
-0.061
-0.059
-0.058
-0.057
-0.055
-0.053
-0.054
-0.053
-0.051
-0.051
-0.051
-0.05
-0.051
-0.052
-0.052
-0.051
-0.049
-0.049
-0.048
-0.047
-0.046
-0.047
-0.045
-0.044
-0.045
-0.046
-0.046
-0.047
-0.047
-0.046
-0.045
-0.044
-0.044
-0.043
-0.042
-0.041
-0.04
-0.04
-0.039
-0.039
-0.039
-0.039
-0.038
-0.039
-0.039
-0.039
-0.038
-0.038
-0.035
-0.031
-0.025
-0.019
-0.012
-0.003
0.004
0.011
0.018
0.024
0.027
0.029
0.03
0.029
0.026
0.023
0.012
0.007
-0.001
-0.008
-0.016
-0.019
-0.026
-0.031
-0.035
-0.037
-0.038
-0.038
-0.039
-0.04
-0.041
-0.041
-0.041
-0.042
-0.04
-0.04
-0.04
-0.039
-0.039
-0.039
-0.039
-0.039
-0.039
-0.042
-0.046
-0.039
-0.019
0.011
0.056
0.113
0.172
0.228
0.284
0.34
0.385
0.407
0.405
0.377
0.324
0.255
0.186
0.118
0.051
-0.013
-0.052
-0.085
-0.102
-0.1
-0.085
-0.082
-0.073
-0.068
-0.066
-0.067
-0.068
-0.067
-0.066
-0.066
-0.065
-0.064
-0.064
-0.065
-0.064
-0.064
-0.062
-0.06
-0.057
-0.053
-0.048
-0.041
-0.032
-0.023
-0.015
-0.006
0.004
0.012
0.021
0.031
0.041
0.05
0.058
0.065
0.07
0.073
0.075
0.077
0.079
0.08
0.081
0.081
0.081
0.079
0.077
0.075
0.074
0.071
0.067
0.062
0.055
0.047
0.038
0.027
0.016
0.005
-0.005
-0.015
-0.023
-0.031
-0.039
-0.048
-0.057
-0.066
-0.072
-0.075
-0.077
-0.077
-0.075
-0.075
-0.074
-0.074
-0.073
-0.072
-0.072
-0.07
-0.068
-0.067
-0.067
-0.065
-0.064
-0.063
-0.063
-0.063
-0.063
-0.064
-0.064
-0.064
-0.064
-0.064
-0.064
-0.064
-0.063
-0.062
-0.06
-0.059
-0.058
-0.056
-0.055
-0.055
-0.055
-0.054
-0.053
-0.053
-0.053
-0.053
-0.051
-0.051
-0.052
-0.051
-0.051
-0.052
-0.052
-0.052
-0.053
-0.052
-0.052
-0.05
-0.048
-0.045
-0.043
-0.039
-0.034
-0.027
-0.018
-0.01
-0.001
0.007
0.014
0.02
0.023
0.025
0.026
0.025
0.023
0.02
0.013
0.007
-0
-0.008
-0.016
-0.022
-0.029
-0.034
-0.038
-0.04
-0.042
-0.042
-0.042
-0.042
-0.041
-0.04
-0.039
-0.038
-0.038
-0.039
-0.039
-0.039
-0.038
-0.038
-0.038
-0.038
-0.039
-0.043
-0.047
-0.041
-0.022
0.009
0.054
0.111
0.168
0.224
0.281
0.336
0.383
0.405
0.403
0.376
0.325
0.258
0.191
0.125
0.057
-0.008
-0.058
-0.09
-0.106
-0.104
-0.09
-0.078
-0.069
-0.064
-0.063
-0.063
-0.063
-0.063
-0.063
-0.062
-0.061
-0.06
-0.06
-0.058
-0.056
-0.055
-0.054
-0.052
-0.051
-0.047
-0.042
-0.034
-0.024
-0.014
-0.006
0.003
0.012
0.021
0.031
0.041
0.05
0.06
0.068
0.075
0.081
0.085
0.088
0.089
0.091
0.092
0.092
0.092
0.091
0.09
0.088
0.085
0.08
0.077
0.074
0.069
0.064
0.06
0.051
0.041
0.03
0.019
0.009
-0
-0.01
-0.019
-0.027
-0.036
-0.045
-0.052
-0.057
-0.062
-0.064
-0.065
-0.064
-0.063
-0.062
-0.061
-0.06
-0.06
-0.06
-0.059
-0.058
-0.056
-0.055
-0.054
-0.053
-0.052
-0.053
-0.053
-0.053
-0.054
-0.054
-0.052
-0.052
-0.051
-0.049
-0.048
-0.047
-0.046
-0.046
-0.045
-0.044
-0.044
-0.043
-0.042
-0.041
-0.04
-0.039
-0.039
-0.038
-0.038
-0.038
-0.038
-0.037
-0.037
-0.036
-0.037
-0.037
-0.038
-0.037
-0.037
-0.036
-0.035
-0.034
-0.033
-0.031
-0.027
-0.022
-0.014
-0.006
0.003
0.011
0.018
0.025
0.031
0.035
0.037
0.037
0.036
0.034
0.031
0.027
0.021
0.013
0.006
-0.003
-0.011
-0.018
-0.023
-0.026
-0.028
-0.029
-0.03
-0.03
-0.031
-0.03
-0.029
-0.028
-0.027
-0.026
-0.025
-0.025
-0.025
-0.025
-0.025
-0.025
-0.024
-0.025
-0.028
-0.031
-0.025
-0.007
0.022
0.066
0.122
0.202
0.258
0.313
0.368
0.415
0.414
0.413
0.388
0.338
0.272
0.204
0.136
0.069
0.005
-0.047
-0.081
-0.099
-0.099
-0.086
-0.073
-0.065
-0.06
-0.058
-0.058
-0.057
-0.056
-0.054
-0.054
-0.054
-0.054
-0.051
-0.051
-0.05
-0.048
-0.047
-0.048
-0.046
-0.041
-0.035
-0.027
-0.019
-0.011
-0.002
0.005
0.014
0.023
0.034
0.043
0.053
0.063
0.073
0.081
0.087
0.091
0.093
0.095
0.096
0.097
0.097
0.096
0.095
0.093
0.091
0.088
0.086
0.083
0.078
0.073
0.067
0.058
0.048
0.038
0.027
0.018
0.008
-0
-0.009
-0.017
-0.025
-0.034
-0.044
-0.052
-0.058
-0.063
-0.065
-0.065
-0.064
-0.064
-0.064
-0.065
-0.065
-0.064
-0.064
-0.063
-0.062
-0.061
-0.061
-0.061
-0.06
-0.061
-0.061
-0.06
-0.059
-0.058
-0.056
-0.055
-0.054
-0.054
-0.053
-0.052
-0.052
-0.052
-0.051
-0.052
-0.053
-0.053
-0.053
-0.053
-0.053
-0.052
-0.052
-0.052
-0.051
-0.05
-0.048
-0.047
-0.046
-0.046
-0.045
-0.046
-0.046
-0.046
-0.046
-0.046
-0.045
-0.045
-0.044
-0.044
-0.042
-0.038
-0.032
-0.025
-0.017
-0.008
0
0.008
0.016
0.021
0.024
0.026
0.026
0.025
0.022
0.018
0.014
0.007
0
-0.008
-0.016
-0.024
-0.031
-0.035
-0.038
-0.04
-0.041
-0.041
-0.042
-0.043
-0.043
-0.043
-0.044
-0.045
-0.045
-0.045
-0.045
-0.044
-0.043
-0.042
-0.042
-0.042
-0.042
-0.046
-0.05
-0.045
-0.027
0.002
0.045
0.101
0.179
0.236
0.293
0.35
0.398
0.4
0.399
0.374
0.323
0.256
0.189
0.121
0.053
-0.012
-0.063
-0.096
-0.113
-0.112
-0.099
-0.087
-0.079
-0.074
-0.073
-0.073
-0.073
-0.072
-0.071
-0.069
-0.068
-0.067
-0.065
-0.065
-0.065
-0.064
-0.063
-0.063
-0.061
-0.056
-0.05
-0.042
-0.032
-0.022
-0.013
-0.005
0.003
0.012
0.022
0.032
0.042
0.051
0.058
0.064
0.07
0.073
0.075
0.078
0.08
0.081
0.083
0.083
0.083
0.082
0.08
0.077
0.071
0.068
0.064
0.059
0.053
0.049
0.04
0.031
0.021
0.011
0.001
-0.009
-0.018
-0.027
-0.036
-0.045
-0.054
-0.062
-0.067
-0.072
-0.074
-0.074
-0.073
-0.072
-0.07
-0.069
-0.067
-0.065
-0.065
-0.064
-0.064
-0.064
-0.063
-0.062
-0.061
-0.06
-0.059
-0.059
-0.059
-0.059
-0.06
-0.06
-0.059
-0.059
-0.058
-0.057
-0.056
-0.055
-0.055
-0.055
-0.054
-0.053
-0.053
-0.053
-0.052
-0.052
-0.052
-0.051
-0.051
-0.051
-0.05
-0.05
-0.049
-0.048
-0.047
-0.046
-0.046
-0.046
-0.045
-0.045
-0.045
-0.044
-0.043
-0.043
-0.041
-0.038
-0.033
-0.026
-0.017
-0.008
0.001
0.008
0.014
0.02
0.024
0.027
0.028
0.028
0.026
0.023
0.019
0.012
0.005
-0.003
-0.011
-0.02
-0.026
-0.031
-0.034
-0.036
-0.037
-0.037
-0.037
-0.038
-0.038
-0.036
-0.036
-0.035
-0.035
-0.035
-0.036
-0.035
-0.036
-0.035
-0.034
-0.033
-0.033
-0.035
-0.038
-0.033
-0.017
0.012
0.055
0.11
0.193
0.25
0.307
0.362
0.41
0.409
0.409
0.385
0.336
0.27
0.202
0.134
0.068
0.003
-0.048
-0.083
-0.1
-0.101
-0.088
-0.076
-0.068
-0.063
-0.061
-0.06
-0.059
-0.058
-0.056
-0.056
-0.056
-0.055
-0.054
-0.055
-0.055
-0.054
-0.052
-0.05
-0.047
-0.042
-0.035
-0.028
-0.02
-0.01
-0
0.008
0.017
0.025
0.034
0.044
0.054
0.063
0.072
0.079
0.085
0.089
0.092
0.094
0.095
0.096
0.097
0.097
0.096
0.094
0.092
0.09
0.088
0.085
0.082
0.078
0.072
0.064
0.054
0.043
0.031
0.021
0.011
0.001
-0.008
-0.017
-0.025
-0.033
-0.041
-0.049
-0.054
-0.057
-0.059
-0.059
-0.058
-0.058
-0.058
-0.057
-0.056
-0.056
-0.056
-0.055
-0.054
-0.054
-0.053
-0.052
-0.052
-0.052
-0.052
-0.053
-0.053
-0.052
-0.052
-0.051
-0.05
-0.05
-0.049
-0.049
-0.047
-0.046
-0.045
-0.044
-0.043
-0.043
-0.042
-0.042
-0.042
-0.041
-0.041
-0.042
-0.042
-0.042
-0.041
-0.041
-0.041
-0.039
-0.041
-0.04
-0.04
-0.038
-0.037
-0.034
-0.034
-0.032
-0.032
-0.031
-0.03
-0.027
-0.023
-0.017
-0.009
-0.001
0.007
0.014
0.021
0.026
0.029
0.032
0.033
0.032
0.031
0.028
0.024
0.018
0.011
0.003
-0.01
-0.018
-0.026
-0.031
-0.035
-0.033
-0.035
-0.034
-0.035
-0.035
-0.034
-0.034
-0.034
-0.034
-0.033
-0.032
-0.032
-0.031
-0.03
-0.03
-0.03
-0.03
-0.03
-0.034
-0.039
-0.035
-0.019
0.01
0.055
0.11
0.169
0.224
0.279
0.335
0.383
0.409
0.41
0.387
0.339
0.272
0.205
0.138
0.07
0.003
-0.05
-0.086
-0.105
-0.106
-0.093
-0.08
-0.071
-0.066
-0.064
-0.064
-0.063
-0.062
-0.06
-0.059
-0.059
-0.058
-0.056
-0.056
-0.056
-0.055
-0.055
-0.056
-0.055
-0.052
-0.042
-0.034
-0.026
-0.016
-0.007
-0.004
0.005
0.014
0.022
0.032
0.042
0.053
0.062
0.07
0.076
0.08
0.081
0.083
0.084
0.086
0.088
0.089
0.089
0.088
0.085
0.082
0.076
0.072
0.068
0.064
0.059
0.054
0.045
0.035
0.025
0.015
0.004
-0.006
-0.015
-0.024
-0.033
-0.042
-0.052
-0.061
-0.065
-0.07
-0.072
-0.071
-0.069
-0.07
-0.069
-0.068
-0.068
-0.068
-0.067
-0.067
-0.066
-0.065
-0.065
-0.064
-0.063
-0.062
-0.061
-0.06
-0.059
-0.059
-0.059
-0.059
-0.059
-0.059
-0.059
-0.058
-0.058
-0.058
-0.056
-0.054
-0.053
-0.052
-0.051
-0.051
-0.051
-0.052
-0.051
-0.051
-0.051
-0.051
-0.049
-0.048
-0.048
-0.048
-0.045
-0.045
-0.046
-0.045
-0.045
-0.047
-0.047
-0.047
-0.048
-0.047
-0.045
-0.041
-0.035
-0.028
-0.019
-0.011
-0.002
0.005
0.011
0.017
0.021
0.023
0.024
0.023
0.021
0.017
0.012
0.006
-0.002
-0.01
-0.019
-0.027
-0.035
-0.04
-0.044
-0.047
-0.048
-0.047
-0.047
-0.047
-0.046
-0.046
-0.046
-0.045
-0.044
-0.044
-0.044
-0.044
-0.043
-0.042
-0.041
-0.039
-0.039
-0.043
-0.048
-0.044
-0.029
-0.001
0.041
0.097
0.156
0.214
0.27
0.326
0.374
0.402
0.404
0.382
0.335
0.27
0.201
0.132
0.065
-0.001
-0.054
-0.089
-0.108
-0.11
-0.097
-0.084
-0.075
-0.07
-0.067
-0.066
-0.065
-0.064
-0.062
-0.061
-0.061
-0.061
-0.061
-0.061
-0.061
-0.059
-0.057
-0.056
-0.055
-0.052
-0.046
-0.04
-0.031
-0.021
-0.012
-0.004
0.004
0.013
0.022
0.031
0.041
0.052
0.061
0.069
0.075
0.079
0.083
0.085
0.087
0.089
0.09
0.091
0.092
0.091
0.089
0.086
0.083
0.079
0.074
0.068
0.061
0.053
0.044
0.033
0.024
0.014
0.004
-0.005
-0.013
-0.021
-0.029
-0.037
-0.045
-0.053
-0.059
-0.062
-0.065
-0.065
-0.064
-0.064
-0.065
-0.065
-0.064
-0.065
-0.064
-0.063
-0.061
-0.06
-0.059
-0.058
-0.059
-0.06
-0.059
-0.057
-0.058
-0.055
-0.054
-0.053
-0.052
-0.051
-0.051
-0.05
-0.051
-0.05
-0.049
-0.047
-0.047
-0.047
-0.047
-0.047
-0.047
-0.046
-0.045
-0.044
-0.044
-0.043
-0.042
-0.042
-0.042
-0.041
-0.043
-0.043
-0.042
-0.041
-0.041
-0.038
-0.038
-0.037
-0.036
-0.034
-0.032
-0.029
-0.024
-0.018
-0.01
-0.001
0.006
0.013
0.019
0.024
0.028
0.031
0.034
0.034
0.032
0.03
0.025
0.02
0.012
0.005
-0.004
-0.012
-0.019
-0.024
-0.027
-0.03
-0.03
-0.03
-0.029
-0.03
-0.029
-0.029
-0.029
-0.029
-0.028
-0.029
-0.029
-0.028
-0.027
-0.027
-0.028
-0.028
-0.028
-0.031
-0.035
-0.031
-0.015
0.012
0.054
0.109
0.166
0.223
0.279
0.335
0.361
0.389
0.392
0.371
0.325
0.284
0.216
0.15
0.083
0.018
-0.036
-0.073
-0.092
-0.094
-0.083
-0.07
-0.061
-0.056
-0.054
-0.053
-0.053
-0.052
-0.051
-0.051
-0.051
-0.05
-0.049
-0.048
-0.048
-0.046
-0.044
-0.043
-0.041
-0.037
-0.031
-0.025
-0.017
-0.008
-0.001
0.007
0.016
0.025
0.035
0.045
0.055
0.065
0.074
0.081
0.087
0.091
0.095
0.097
0.099
0.099
0.1
0.1
0.099
0.098
0.096
0.094
0.092
0.088
0.084
0.079
0.073
0.064
0.055
0.045
0.035
0.025
0.015
0.006
-0.003
-0.012
-0.022
-0.031
-0.04
-0.048
-0.053
-0.058
-0.062
-0.064
-0.063
-0.063
-0.062
-0.06
-0.059
-0.059
-0.058
-0.058
-0.057
-0.057
-0.056
-0.056
-0.053
-0.053
-0.052
-0.051
-0.05
-0.052
-0.052
-0.051
-0.051
-0.051
-0.049
-0.047
-0.046
-0.046
-0.045
-0.045
-0.045
-0.046
-0.046
-0.046
-0.046
-0.046
-0.046
-0.045
-0.045
-0.044
-0.043
-0.043
-0.042
-0.042
-0.04
-0.039
-0.039
-0.039
-0.038
-0.04
-0.041
-0.041
-0.042
-0.041
-0.04
-0.036
-0.03
-0.023
-0.015
-0.006
0.001
0.008
0.014
0.018
0.022
0.024
0.026
0.026
0.026
0.023
0.019
0.013
0.005
-0.003
-0.011
-0.019
-0.027
-0.032
-0.036
-0.038
-0.04
-0.04
-0.04
-0.041
-0.042
-0.042
-0.043
-0.043
-0.042
-0.041
-0.04
-0.039
-0.039
-0.04
-0.04
-0.04
-0.041
-0.043
-0.047
-0.043
-0.027
-0
0.04
0.094
0.151
0.208
0.265
0.32
0.35
0.378
0.382
0.362
0.317
0.274
0.205
0.137
0.071
0.006
-0.046
-0.083
-0.103
-0.107
-0.097
-0.084
-0.074
-0.07
-0.067
-0.066
-0.066
-0.065
-0.065
-0.065
-0.065
-0.064
-0.063
-0.062
-0.061
-0.06
-0.059
-0.059
-0.058
-0.055
-0.049
-0.042
-0.033
-0.024
-0.014
-0.007
0.001
0.01
0.019
0.028
0.037
0.047
0.056
0.064
0.071
0.076
0.08
0.082
0.084
0.086
0.086
0.087
0.087
0.086
0.083
0.081
0.078
0.075
0.072
0.068
0.062
0.054
0.045
0.034
0.024
0.013
0.002
-0.008
-0.016
-0.025
-0.034
-0.042
-0.05
-0.059
-0.066
-0.07
-0.072
-0.073
-0.072
-0.071
-0.072
-0.071
-0.071
-0.07
-0.069
-0.069
-0.067
-0.066
-0.065
-0.065
-0.067
-0.067
-0.068
-0.067
-0.066
-0.063
-0.062
-0.061
-0.06
-0.06
-0.058
-0.057
-0.057
-0.056
-0.054
-0.053
-0.053
-0.053
-0.053
-0.053
-0.053
-0.052
-0.051
-0.05
-0.05
-0.05
-0.049
-0.049
-0.049
-0.049
-0.048
-0.048
-0.047
-0.046
-0.045
-0.044
-0.044
-0.043
-0.042
-0.041
-0.04
-0.036
-0.032
-0.026
-0.019
-0.01
-0.002
0.006
0.013
0.018
0.022
0.024
0.025
0.025
0.024
0.021
0.018
0.013
0.006
-0.001
-0.009
-0.017
-0.025
-0.03
-0.034
-0.037
-0.038
-0.039
-0.038
-0.038
-0.039
-0.038
-0.038
-0.039
-0.039
-0.039
-0.039
-0.039
-0.038
-0.037
-0.036
-0.036
-0.035
-0.038
-0.042
-0.039
-0.023
0.005
0.046
0.1
0.157
0.212
0.267
0.323
0.351
0.382
0.386
0.367
0.321
0.28
0.211
0.145
0.079
0.013
-0.042
-0.081
-0.102
-0.106
-0.095
-0.082
-0.072
-0.066
-0.064
-0.064
-0.064
-0.064
-0.064
-0.063
-0.062
-0.061
-0.059
-0.057
-0.057
-0.056
-0.054
-0.053
-0.053
-0.05
-0.045
-0.038
-0.029
-0.019
-0.008
0.002
0.011
0.02
0.029
0.037
0.046
0.056
0.065
0.073
0.08
0.084
0.087
0.089
0.091
0.092
0.093
0.093
0.093
0.092
0.089
0.087
0.084
0.081
0.077
0.072
0.065
0.058
0.05
0.04
0.03
0.021
0.01
0.001
-0.008
-0.016
-0.024
-0.032
-0.041
-0.049
-0.054
-0.059
-0.061
-0.062
-0.061
-0.061
-0.06
-0.06
-0.06
-0.059
-0.058
-0.057
-0.056
-0.055
-0.054
-0.054
-0.053
-0.052
-0.051
-0.05
-0.049
-0.048
-0.048
-0.047
-0.046
-0.047
-0.046
-0.045
-0.045
-0.045
-0.043
-0.042
-0.042
-0.041
-0.039
-0.039
-0.039
-0.039
-0.039
-0.039
-0.039
-0.039
-0.04
-0.04
-0.04
-0.04
-0.039
-0.039
-0.039
-0.038
-0.037
-0.036
-0.034
-0.032
-0.03
-0.03
-0.029
-0.027
-0.023
-0.017
-0.009
0.001
0.01
0.018
0.025
0.03
0.034
0.037
0.038
0.038
0.037
0.035
0.031
0.025
0.017
0.009
0
-0.009
-0.016
-0.021
-0.026
-0.029
-0.031
-0.03
-0.03
-0.029
-0.029
-0.029
-0.029
-0.029
-0.029
-0.028
-0.027
-0.028
-0.028
-0.028
-0.028
-0.029
-0.029
-0.032
-0.037
-0.034
-0.019
0.008
0.049
0.103
0.161
0.219
0.275
0.33
0.38
0.411
0.416
0.397
0.354
0.29
0.221
0.152
0.084
0.018
-0.038
-0.077
-0.098
-0.102
-0.091
-0.077
-0.067
-0.061
-0.059
-0.059
-0.059
-0.058
-0.057
-0.057
-0.058
-0.057
-0.057
-0.056
-0.055
-0.054
-0.053
-0.053
-0.052
-0.048
-0.041
-0.034
-0.026
-0.016
-0.007
0
0.008
0.017
0.027
0.036
0.046
0.057
0.066
0.074
0.082
0.087
0.091
0.093
0.095
0.096
0.096
0.096
0.095
0.093
0.09
0.088
0.086
0.083
0.079
0.074
0.061
0.052
0.043
0.034
0.023
0.019
0.01
0
-0.008
-0.016
-0.025
-0.033
-0.042
-0.051
-0.058
-0.063
-0.066
-0.067
-0.066
-0.066
-0.065
-0.065
-0.064
-0.062
-0.061
-0.06
-0.059
-0.059
-0.06
-0.061
-0.061
-0.06
-0.061
-0.06
-0.059
-0.058
-0.057
-0.056
-0.054
-0.054
-0.054
-0.054
-0.053
-0.053
-0.052
-0.051
-0.051
-0.05
-0.05
-0.05
-0.05
-0.05
-0.05
-0.049
-0.048
-0.048
-0.046
-0.046
-0.046
-0.046
-0.047
-0.048
-0.048
-0.048
-0.046
-0.045
-0.043
-0.042
-0.041
-0.042
-0.041
-0.038
-0.034
-0.028
-0.02
-0.012
-0.004
0.003
0.01
0.016
0.02
0.023
0.024
0.025
0.023
0.021
0.011
0.005
-0.003
-0.011
-0.02
-0.022
-0.028
-0.034
-0.038
-0.04
-0.041
-0.041
-0.04
-0.04
-0.04
-0.04
-0.04
-0.04
-0.04
-0.04
-0.04
-0.04
-0.04
-0.039
-0.038
-0.038
-0.038
-0.042
-0.048
-0.046
-0.031
-0.006
0.034
0.089
0.147
0.203
0.259
0.314
0.365
0.396
0.402
0.383
0.317
0.253
0.184
0.118
0.052
0.01
-0.047
-0.086
-0.109
-0.114
-0.103
-0.089
-0.078
-0.071
-0.069
-0.068
-0.068
-0.067
-0.067
-0.068
-0.068
-0.067
-0.066
-0.066
-0.065
-0.064
-0.062
-0.06
-0.057
-0.052
-0.04
-0.032
-0.023
-0.013
-0.005
-0.003
0.006
0.014
0.023
0.032
0.043
0.053
0.062
0.069
0.075
0.079
0.082
0.083
0.084
0.085
0.085
0.085
0.085
0.085
0.083
0.081
0.078
0.076
0.072
0.067
0.061
0.054
0.045
0.034
0.024
0.014
0.004
-0.006
-0.013
-0.021
-0.03
-0.039
-0.049
-0.058
-0.066
-0.07
-0.072
-0.073
-0.072
-0.071
-0.07
-0.069
-0.068
-0.067
-0.067
-0.067
-0.067
-0.067
-0.067
-0.066
-0.064
-0.062
-0.062
-0.062
-0.064
-0.065
-0.066
-0.065
-0.064
-0.061
-0.06
-0.058
-0.057
-0.055
-0.054
-0.053
-0.052
-0.052
-0.051
-0.051
-0.051
-0.05
-0.049
-0.048
-0.048
-0.048
-0.047
-0.047
-0.047
-0.048
-0.048
-0.047
-0.046
-0.045
-0.045
-0.044
-0.044
-0.043
-0.043
-0.041
-0.04
-0.037
-0.031
-0.024
-0.016
-0.006
0.003
0.01
0.016
0.021
0.025
0.028
0.029
0.029
0.028
0.025
0.021
0.015
0.008
0.001
-0.006
-0.015
-0.022
-0.028
-0.032
-0.035
-0.036
-0.036
-0.036
-0.036
-0.036
-0.036
-0.037
-0.037
-0.036
-0.035
-0.034
-0.034
-0.034
-0.034
-0.034
-0.033
-0.032
-0.033
-0.037
-0.036
-0.023
0.002
0.041
0.094
0.151
0.208
0.264
0.32
0.371
0.403
0.411
0.393
0.324
0.262
0.195
0.129
0.062
0.025
-0.031
-0.069
-0.091
-0.097
-0.087
-0.074
-0.065
-0.059
-0.056
-0.055
-0.054
-0.054
-0.053
-0.053
-0.053
-0.053
-0.052
-0.051
-0.05
-0.049
-0.048
-0.048
-0.047
-0.043
-0.036
-0.029
-0.02
-0.01
-0
0.007
0.014
0.023
0.032
0.04
0.05
0.06
0.068
0.076
0.083
0.088
0.092
0.094
0.096
0.097
0.098
0.098
0.099
0.098
0.096
0.094
0.092
0.089
0.085
0.082
0.077
0.069
0.06
0.048
0.037
0.025
0.015
0.006
-0.002
-0.011
-0.02
-0.029
-0.038
-0.046
-0.052
-0.055
-0.057
-0.057
-0.056
-0.056
-0.057
-0.057
-0.057
-0.057
-0.057
-0.056
-0.055
-0.054
-0.053
-0.053
-0.052
-0.052
-0.052
-0.051
-0.049
-0.047
-0.045
-0.043
-0.042
-0.044
-0.045
-0.046
-0.046
-0.045
-0.044
-0.043
-0.042
-0.041
-0.04
-0.04
-0.04
-0.039
-0.039
-0.039
-0.039
-0.038
-0.038
-0.038
-0.038
-0.039
-0.039
-0.039
-0.039
-0.038
-0.036
-0.035
-0.033
-0.03
-0.029
-0.028
-0.027
-0.025
-0.02
-0.015
-0.007
0.002
0.011
0.018
0.025
0.03
0.035
0.037
0.039
0.039
0.037
0.034
0.023
0.016
0.008
-0
-0.009
-0.011
-0.018
-0.024
-0.028
-0.031
-0.033
-0.033
-0.033
-0.034
-0.033
-0.033
-0.032
-0.032
-0.031
-0.031
-0.031
-0.03
-0.031
-0.032
-0.033
-0.033
-0.032
-0.035
-0.039
-0.037
-0.025
-0.001
0.038
0.091
0.15
0.207
0.264
0.32
0.372
0.406
0.414
0.397
0.332
0.27
0.201
0.134
0.068
0.026
-0.033
-0.073
-0.097
-0.102
-0.093
-0.079
-0.069
-0.063
-0.061
-0.061
-0.061
-0.061
-0.06
-0.059
-0.057
-0.056
-0.055
-0.055
-0.055
-0.055
-0.054
-0.054
-0.053
-0.05
-0.046
-0.039
-0.031
-0.022
-0.012
-0.004
0.004
0.012
0.021
0.03
0.039
0.05
0.061
0.068
0.074
0.079
0.083
0.084
0.086
0.087
0.087
0.087
0.086
0.085
0.083
0.08
0.077
0.074
0.07
0.066
0.06
0.053
0.044
0.033
0.017
0.007
-0.003
-0.013
-0.021
-0.025
-0.034
-0.044
-0.053
-0.062
-0.068
-0.072
-0.075
-0.076
-0.074
-0.074
-0.074
-0.073
-0.072
-0.072
-0.072
-0.072
-0.071
-0.07
-0.07
-0.068
-0.067
-0.066
-0.066
-0.064
-0.065
-0.065
-0.064
-0.063
-0.062
-0.06
-0.06
-0.059
-0.058
-0.058
-0.057
-0.056
-0.055
-0.055
-0.054
-0.054
-0.054
-0.054
-0.054
-0.055
-0.054
-0.054
-0.054
-0.053
-0.053
-0.052
-0.051
-0.049
-0.049
-0.048
-0.047
-0.047
-0.047
-0.047
-0.046
-0.046
-0.045
-0.042
-0.038
-0.032
-0.024
-0.015
-0.007
0.001
0.007
0.013
0.017
0.021
0.023
0.023
0.023
0.02
0.016
0.009
0.003
-0.005
-0.013
-0.021
-0.03
-0.036
-0.04
-0.043
-0.045
-0.044
-0.046
-0.047
-0.047
-0.046
-0.046
-0.043
-0.042
-0.041
-0.041
-0.041
-0.04
-0.04
-0.039
-0.039
-0.039
-0.041
-0.046
-0.044
-0.031
-0.006
0.032
0.084
0.141
0.198
0.255
0.311
0.362
0.395
0.403
0.387
0.319
0.257
0.19
0.122
0.055
0.016
-0.041
-0.082
-0.106
-0.112
-0.102
-0.089
-0.078
-0.071
-0.068
-0.067
-0.066
-0.065
-0.063
-0.062
-0.061
-0.061
-0.061
-0.061
-0.061
-0.06
-0.059
-0.058
-0.057
-0.053
-0.047
-0.04
-0.032
-0.023
-0.015
-0.007
0.002
0.01
0.021
0.032
0.042
0.053
0.062
0.069
0.075
0.079
0.081
0.084
0.086
0.087
0.088
0.089
0.09
0.089
0.087
0.085
0.082
0.078
0.073
0.069
0.064
0.057
0.05
0.04
0.027
0.016
0.006
-0.004
-0.012
-0.02
-0.029
-0.038
-0.046
-0.054
-0.06
-0.064
-0.066
-0.068
-0.068
-0.068
-0.067
-0.066
-0.064
-0.063
-0.062
-0.061
-0.061
-0.06
-0.06
-0.058
-0.057
-0.057
-0.057
-0.056
-0.056
-0.055
-0.055
-0.053
-0.05
-0.049
-0.048
-0.047
-0.045
-0.047
-0.047
-0.047
-0.047
-0.047
-0.046
-0.045
-0.044
-0.043
-0.043
-0.043
-0.043
-0.042
-0.041
-0.04
-0.039
-0.038
-0.037
-0.038
-0.039
-0.039
-0.039
-0.039
-0.039
-0.038
-0.035
-0.035
-0.034
-0.031
-0.026
-0.023
-0.016
-0.008
-0
0.007
0.015
0.021
0.026
0.03
0.033
0.033
0.033
0.03
0.026
0.02
0.013
0.006
-0.002
-0.01
-0.018
-0.025
-0.03
-0.034
-0.036
-0.036
-0.034
-0.033
-0.032
-0.031
-0.03
-0.032
-0.032
-0.033
-0.033
-0.032
-0.031
-0.03
-0.029
-0.029
-0.029
-0.031
-0.036
-0.036
-0.023
0.001
0.039
0.093
0.152
0.209
0.265
0.321
0.374
0.408
0.418
0.402
0.362
0.3
0.23
0.162
0.096
0.029
-0.03
-0.071
-0.094
-0.1
-0.09
-0.076
-0.066
-0.06
-0.058
-0.057
-0.055
-0.054
-0.052
-0.051
-0.05
-0.05
-0.048
-0.048
-0.048
-0.048
-0.048
-0.047
-0.046
-0.043
-0.038
-0.031
-0.023
-0.013
-0.002
0.007
0.016
0.025
0.034
0.041
0.05
0.059
0.067
0.075
0.082
0.087
0.091
0.093
0.096
0.097
0.097
0.097
0.096
0.095
0.093
0.09
0.087
0.084
0.08
0.075
0.07
0.063
0.054
0.045
0.029
0.019
0.008
-0.001
-0.01
-0.014
-0.022
-0.031
-0.04
-0.048
-0.054
-0.059
-0.062
-0.064
-0.063
-0.062
-0.06
-0.059
-0.058
-0.057
-0.057
-0.057
-0.056
-0.056
-0.056
-0.055
-0.054
-0.053
-0.052
-0.052
-0.052
-0.052
-0.052
-0.052
-0.051
-0.052
-0.052
-0.05
-0.049
-0.049
-0.048
-0.047
-0.047
-0.047
-0.046
-0.045
-0.045
-0.045
-0.044
-0.044
-0.044
-0.044
-0.043
-0.043
-0.043
-0.042
-0.04
-0.04
-0.04
-0.04
-0.039
-0.04
-0.039
-0.038
-0.038
-0.038
-0.037
-0.034
-0.029
-0.023
-0.015
-0.006
0.003
0.011
0.018
0.024
0.028
0.029
0.03
0.031
0.03
0.027
0.023
0.018
0.011
0.003
-0.005
-0.014
-0.023
-0.03
-0.034
-0.037
-0.039
-0.039
-0.039
-0.039
-0.039
-0.039
-0.038
-0.038
-0.037
-0.036
-0.036
-0.036
-0.036
-0.036
-0.036
-0.035
-0.035
-0.036
-0.042
-0.041
-0.03
-0.006
0.03
0.082
0.14
0.197
0.255
0.312
0.364
0.399
0.408
0.392
0.353
0.291
0.223
0.156
0.072
0.004
-0.054
-0.094
-0.119
-0.11
-0.101
-0.088
-0.078
-0.072
-0.069
-0.068
-0.067
-0.068
-0.068
-0.067
-0.067
-0.066
-0.065
-0.064
-0.063
-0.063
-0.062
-0.061
-0.06
-0.057
-0.052
-0.045
-0.036
-0.027
-0.013
-0.003
0.005
0.013
0.022
0.026
0.036
0.046
0.055
0.063
0.069
0.073
0.076
0.078
0.08
0.082
0.084
0.085
0.085
0.083
0.08
0.077
0.073
0.07
0.066
0.061
0.056
0.05
0.042
0.032
0.022
0.011
-0
-0.011
-0.02
-0.028
-0.037
-0.044
-0.051
-0.058
-0.065
-0.07
-0.073
-0.075
-0.075
-0.075
-0.073
-0.072
-0.07
-0.069
-0.067
-0.067
-0.066
-0.066
-0.066
-0.065
-0.064
-0.063
-0.063
-0.063
-0.062
-0.062
-0.063
-0.062
-0.061
-0.061
-0.061
-0.061
-0.059
-0.059
-0.058
-0.057
-0.055
-0.055
-0.055
-0.054
-0.053
-0.053
-0.053
-0.052
-0.052
-0.053
-0.053
-0.053
-0.053
-0.053
-0.052
-0.051
-0.05
-0.05
-0.05
-0.05
-0.05
-0.05
-0.047
-0.047
-0.046
-0.042
-0.037
-0.032
-0.025
-0.016
-0.008
0
0.008
0.014
0.019
0.021
0.022
0.023
0.022
0.02
0.017
0.012
0.006
-0.001
-0.009
-0.017
-0.025
-0.031
-0.035
-0.039
-0.041
-0.042
-0.042
-0.043
-0.043
-0.042
-0.044
-0.043
-0.043
-0.042
-0.041
-0.038
-0.038
-0.037
-0.036
-0.036
-0.036
-0.038
-0.042
-0.042
-0.031
-0.007
0.03
0.081
0.139
0.197
0.252
0.308
0.361
0.398
0.41
0.396
0.359
0.298
0.229
0.161
0.074
0.008
-0.051
-0.093
-0.118
-0.104
-0.096
-0.082
-0.072
-0.066
-0.064
-0.063
-0.062
-0.061
-0.06
-0.059
-0.058
-0.057
-0.057
-0.057
-0.058
-0.058
-0.057
-0.056
-0.054
-0.05
-0.045
-0.038
-0.029
-0.02
-0.011
-0.002
0.007
0.015
0.028
0.038
0.048
0.059
0.07
0.075
0.082
0.088
0.092
0.094
0.096
0.096
0.097
0.097
0.096
0.095
0.093
0.091
0.088
0.085
0.081
0.076
0.07
0.063
0.054
0.044
0.034
0.024
0.013
0.003
-0.01
-0.019
-0.027
-0.035
-0.044
-0.048
-0.055
-0.06
-0.063
-0.064
-0.063
-0.061
-0.061
-0.061
-0.06
-0.061
-0.061
-0.06
-0.059
-0.058
-0.056
-0.055
-0.053
-0.052
-0.052
-0.052
-0.052
-0.051
-0.051
-0.049
-0.048
-0.047
-0.047
-0.046
-0.045
-0.044
-0.044
-0.043
-0.043
-0.042
-0.042
-0.042
-0.041
-0.041
-0.041
-0.041
-0.041
-0.041
-0.04
-0.039
-0.039
-0.039
-0.038
-0.038
-0.038
-0.037
-0.036
-0.035
-0.034
-0.033
-0.032
-0.032
-0.031
-0.029
-0.024
-0.019
-0.012
-0.003
0.005
0.013
0.021
0.027
0.032
0.035
0.036
0.037
0.036
0.034
0.031
0.027
0.02
0.011
0.002
-0.007
-0.016
-0.022
-0.027
-0.03
-0.031
-0.032
-0.032
-0.032
-0.032
-0.031
-0.028
-0.027
-0.026
-0.024
-0.024
-0.026
-0.026
-0.025
-0.025
-0.025
-0.024
-0.026
-0.031
-0.032
-0.02
0.002
0.039
0.09
0.168
0.224
0.281
0.337
0.39
0.403
0.416
0.403
0.366
0.306
0.239
0.171
0.087
0.019
-0.041
-0.084
-0.111
-0.102
-0.095
-0.081
-0.07
-0.062
-0.058
-0.056
-0.056
-0.056
-0.055
-0.055
-0.055
-0.055
-0.055
-0.054
-0.054
-0.053
-0.052
-0.051
-0.05
-0.047
-0.042
-0.036
-0.028
-0.018
-0.008
0.001
0.009
0.017
0.026
0.035
0.045
0.056
0.067
0.075
0.081
0.086
0.089
0.09
0.092
0.092
0.093
0.092
0.092
0.091
0.09
0.088
0.086
0.083
0.078
0.074
0.068
0.06
0.051
0.041
0.03
0.019
0.009
-0
-0.012
-0.02
-0.029
-0.037
-0.045
-0.05
-0.056
-0.061
-0.066
-0.068
-0.068
-0.067
-0.067
-0.066
-0.065
-0.065
-0.066
-0.066
-0.066
-0.065
-0.064
-0.062
-0.061
-0.061
-0.061
-0.061
-0.059
-0.058
-0.058
-0.057
-0.056
-0.057
-0.057
-0.056
-0.054
-0.054
-0.053
-0.052
-0.051
-0.051
-0.051
-0.05
-0.05
-0.05
-0.049
-0.049
-0.049
-0.049
-0.048
-0.048
-0.048
-0.049
-0.049
-0.049
-0.049
-0.049
-0.048
-0.048
-0.048
-0.048
-0.046
-0.046
-0.045
-0.041
-0.037
-0.032
-0.026
-0.018
-0.01
-0.002
0.005
0.012
0.019
0.022
0.024
0.024
0.023
0.02
0.016
0.011
0.004
-0.004
-0.012
-0.022
-0.03
-0.037
-0.042
-0.045
-0.046
-0.046
-0.046
-0.045
-0.044
-0.043
-0.045
-0.044
-0.044
-0.043
-0.042
-0.039
-0.039
-0.039
-0.039
-0.039
-0.039
-0.04
-0.045
-0.047
-0.036
-0.014
0.021
0.071
0.129
0.187
0.243
0.298
0.353
0.392
0.406
0.396
0.36
0.301
0.232
0.163
0.097
0.03
-0.031
-0.075
-0.102
-0.112
-0.105
-0.091
-0.078
-0.071
-0.068
-0.067
-0.066
-0.067
-0.067
-0.066
-0.065
-0.065
-0.063
-0.062
-0.062
-0.062
-0.061
-0.062
-0.061
-0.057
-0.052
-0.045
-0.037
-0.028
-0.018
-0.01
-0.001
0.008
0.02
0.03
0.039
0.049
0.058
0.063
0.069
0.074
0.077
0.08
0.082
0.084
0.087
0.088
0.088
0.087
0.084
0.082
0.078
0.074
0.07
0.065
0.059
0.052
0.044
0.034
0.024
0.015
0.005
-0.005
-0.017
-0.025
-0.034
-0.041
-0.049
-0.054
-0.061
-0.066
-0.069
-0.071
-0.07
-0.069
-0.069
-0.069
-0.069
-0.069
-0.069
-0.068
-0.067
-0.067
-0.067
-0.067
-0.066
-0.066
-0.065
-0.065
-0.063
-0.063
-0.062
-0.061
-0.06
-0.06
-0.06
-0.059
-0.057
-0.057
-0.056
-0.055
-0.054
-0.053
-0.052
-0.051
-0.05
-0.05
-0.05
-0.049
-0.05
-0.05
-0.048
-0.047
-0.046
-0.045
-0.044
-0.044
-0.044
-0.042
-0.041
-0.041
-0.04
-0.039
-0.039
-0.038
-0.037
-0.035
-0.026
-0.02
-0.013
-0.004
0.004
0.006
0.013
0.019
0.022
0.025
0.027
0.026
0.025
0.022
0.019
0.014
0.007
0
-0.007
-0.015
-0.022
-0.027
-0.031
-0.034
-0.036
-0.036
-0.036
-0.037
-0.036
-0.035
-0.035
-0.035
-0.035
-0.035
-0.035
-0.035
-0.035
-0.033
-0.032
-0.031
-0.031
-0.033
-0.038
-0.039
-0.03
-0.007
0.029
0.079
0.136
0.192
0.247
0.303
0.358
0.396
0.411
0.4
0.365
0.307
0.24
0.174
0.108
0.041
-0.02
-0.064
-0.091
-0.102
-0.096
-0.081
-0.07
-0.063
-0.06
-0.059
-0.059
-0.059
-0.059
-0.058
-0.058
-0.057
-0.055
-0.054
-0.053
-0.052
-0.051
-0.05
-0.049
-0.047
-0.041
-0.035
-0.027
-0.019
-0.009
-0.001
0.008
0.016
0.03
0.04
0.05
0.061
0.071
0.074
0.081
0.086
0.089
0.092
0.095
0.096
0.098
0.099
0.1
0.099
0.097
0.095
0.093
0.09
0.085
0.081
0.076
0.069
0.06
0.05
0.04
0.029
0.018
0.009
0.001
-0.008
-0.017
-0.026
-0.035
-0.044
-0.052
-0.057
-0.061
-0.063
-0.063
-0.062
-0.061
-0.06
-0.059
-0.057
-0.056
-0.056
-0.054
-0.054
-0.053
-0.053
-0.053
-0.052
-0.052
-0.052
-0.051
-0.05
-0.051
-0.05
-0.05
-0.049
-0.049
-0.048
-0.049
-0.048
-0.047
-0.046
-0.046
-0.043
-0.042
-0.041
-0.041
-0.041
-0.041
-0.041
-0.041
-0.04
-0.039
-0.037
-0.037
-0.036
-0.036
-0.036
-0.037
-0.037
-0.036
-0.035
-0.035
-0.034
-0.034
-0.035
-0.035
-0.034
-0.028
-0.022
-0.015
-0.005
0.004
0.011
0.018
0.025
0.031
0.034
0.036
0.037
0.036
0.033
0.028
0.022
0.015
0.007
-0.001
-0.01
-0.018
-0.025
-0.031
-0.035
-0.037
-0.037
-0.036
-0.035
-0.035
-0.034
-0.033
-0.033
-0.033
-0.033
-0.033
-0.033
-0.033
-0.033
-0.032
-0.031
-0.031
-0.033
-0.037
-0.038
-0.028
-0.007
0.028
0.078
0.136
0.194
0.252
0.308
0.361
0.401
0.416
0.405
0.371
0.314
0.245
0.176
0.109
0.041
-0.022
-0.068
-0.091
-0.103
-0.097
-0.083
-0.071
-0.07
-0.066
-0.064
-0.064
-0.064
-0.063
-0.063
-0.063
-0.062
-0.061
-0.06
-0.059
-0.058
-0.057
-0.056
-0.056
-0.053
-0.048
-0.042
-0.034
-0.023
-0.013
-0.004
0.004
0.013
0.021
0.03
0.038
0.048
0.057
0.065
0.072
0.077
0.081
0.084
0.086
0.088
0.089
0.089
0.088
0.087
0.084
0.081
0.078
0.074
0.07
0.065
0.06
0.053
0.044
0.033
0.023
0.013
0.003
-0.006
-0.015
-0.024
-0.033
-0.043
-0.052
-0.06
-0.067
-0.072
-0.074
-0.075
-0.075
-0.075
-0.074
-0.074
-0.074
-0.073
-0.072
-0.071
-0.069
-0.068
-0.067
-0.066
-0.065
-0.064
-0.063
-0.062
-0.061
-0.061
-0.061
-0.061
-0.061
-0.061
-0.061
-0.061
-0.059
-0.059
-0.059
-0.057
-0.056
-0.057
-0.057
-0.056
-0.055
-0.055
-0.055
-0.055
-0.056
-0.056
-0.055
-0.054
-0.053
-0.052
-0.051
-0.05
-0.05
-0.05
-0.049
-0.05
-0.051
-0.051
-0.051
-0.051
-0.05
-0.047
-0.042
-0.035
-0.027
-0.018
-0.009
-0
0.007
0.014
0.02
0.023
0.025
0.025
0.025
0.022
0.018
0.013
0.006
-0.002
-0.01
-0.019
-0.027
-0.033
-0.038
-0.042
-0.043
-0.044
-0.045
-0.045
-0.045
-0.045
-0.044
-0.044
-0.045
-0.045
-0.045
-0.044
-0.043
-0.041
-0.04
-0.039
-0.039
-0.04
-0.045
-0.047
-0.037
-0.016
0.019
0.07
0.127
0.184
0.24
0.296
0.35
0.39
0.405
0.396
0.361
0.303
0.235
0.168
0.102
0.036
-0.026
-0.071
-0.093
-0.104
-0.099
-0.085
-0.074
-0.072
-0.069
-0.068
-0.067
-0.066
-0.064
-0.063
-0.063
-0.063
-0.063
-0.062
-0.061
-0.061
-0.059
-0.059
-0.058
-0.056
-0.051
-0.045
-0.037
-0.027
-0.017
-0.007
0.002
0.011
0.021
0.03
0.039
0.049
0.059
0.066
0.073
0.08
0.084
0.087
0.088
0.089
0.09
0.089
0.089
0.088
0.086
0.083
0.082
0.078
0.074
0.069
0.064
0.057
0.049
0.04
0.03
0.019
0.008
-0.002
-0.01
-0.017
-0.025
-0.033
-0.04
-0.049
-0.057
-0.062
-0.066
-0.068
-0.068
-0.067
-0.065
-0.065
-0.065
-0.064
-0.065
-0.066
-0.065
-0.064
-0.063
-0.062
-0.061
-0.059
-0.058
-0.057
-0.057
-0.057
-0.057
-0.057
-0.057
-0.056
-0.055
-0.055
-0.055
-0.054
-0.054
-0.052
-0.051
-0.049
-0.049
-0.049
-0.048
-0.048
-0.048
-0.047
-0.046
-0.046
-0.045
-0.044
-0.043
-0.042
-0.04
-0.039
-0.039
-0.039
-0.039
-0.04
-0.04
-0.039
-0.037
-0.036
-0.035
-0.033
-0.028
-0.023
-0.017
-0.008
0.001
0.009
0.017
0.023
0.029
0.032
0.033
0.034
0.033
0.03
0.026
0.022
0.015
0.008
0.002
-0.007
-0.015
-0.022
-0.027
-0.031
-0.032
-0.032
-0.032
-0.031
-0.032
-0.032
-0.031
-0.031
-0.031
-0.03
-0.028
-0.028
-0.027
-0.026
-0.025
-0.026
-0.025
-0.026
-0.03
-0.032
-0.023
-0.002
0.03
0.078
0.136
0.194
0.251
0.307
0.36
0.4
0.415
0.407
0.374
0.318
0.25
0.183
0.116
0.049
-0.012
-0.058
-0.079
-0.09
-0.085
-0.071
-0.06
-0.059
-0.055
-0.054
-0.053
-0.052
-0.052
-0.051
-0.052
-0.052
-0.052
-0.051
-0.05
-0.048
-0.047
-0.045
-0.044
-0.042
-0.038
-0.032
-0.024
-0.014
-0.005
0.004
0.012
0.021
0.029
0.04
0.049
0.059
0.069
0.078
0.085
0.09
0.094
0.097
0.098
0.099
0.1
0.099
0.098
0.097
0.094
0.092
0.09
0.088
0.084
0.08
0.074
0.066
0.057
0.047
0.036
0.026
0.016
0.007
-0.002
-0.009
-0.018
-0.026
-0.036
-0.045
-0.053
-0.058
-0.061
-0.061
-0.062
-0.061
-0.061
-0.061
-0.061
-0.06
-0.06
-0.059
-0.059
-0.058
-0.057
-0.057
-0.056
-0.055
-0.056
-0.055
-0.054
-0.053
-0.053
-0.052
-0.052
-0.052
-0.052
-0.051
-0.051
-0.05
-0.05
-0.05
-0.049
-0.047
-0.046
-0.046
-0.045
-0.044
-0.044
-0.042
-0.041
-0.042
-0.042
-0.043
-0.043
-0.042
-0.041
-0.041
-0.041
-0.041
-0.041
-0.04
-0.04
-0.039
-0.039
-0.038
-0.038
-0.036
-0.032
-0.027
-0.02
-0.012
-0.003
0.005
0.012
0.019
0.025
0.028
0.029
0.03
0.029
0.026
0.022
0.016
0.009
0.001
-0.008
-0.016
-0.023
-0.029
-0.034
-0.037
-0.039
-0.04
-0.04
-0.041
-0.041
-0.041
-0.039
-0.039
-0.038
-0.038
-0.037
-0.037
-0.037
-0.037
-0.037
-0.036
-0.037
-0.039
-0.042
-0.045
-0.036
-0.016
0.018
0.066
0.123
0.179
0.235
0.291
0.346
0.387
0.404
0.397
0.365
0.309
0.242
0.175
0.109
0.042
-0.021
-0.068
-0.096
-0.109
-0.104
-0.089
-0.079
-0.072
-0.069
-0.067
-0.067
-0.065
-0.064
-0.064
-0.064
-0.064
-0.063
-0.062
-0.061
-0.06
-0.059
-0.057
-0.057
-0.055
-0.05
-0.045
-0.038
-0.029
-0.02
-0.012
-0.004
0.005
0.014
0.023
0.034
0.044
0.055
0.063
0.07
0.076
0.081
0.083
0.085
0.086
0.086
0.086
0.085
0.084
0.083
0.081
0.079
0.077
0.073
0.068
0.062
0.054
0.044
0.035
0.024
0.013
0.003
-0.007
-0.016
-0.024
-0.033
-0.041
-0.053
-0.061
-0.067
-0.072
-0.075
-0.073
-0.073
-0.071
-0.069
-0.068
-0.067
-0.067
-0.068
-0.069
-0.068
-0.067
-0.067
-0.065
-0.064
-0.064
-0.064
-0.064
-0.063
-0.063
-0.063
-0.063
-0.061
-0.06
-0.061
-0.06
-0.059
-0.06
-0.06
-0.059
-0.058
-0.057
-0.057
-0.056
-0.054
-0.054
-0.055
-0.054
-0.054
-0.054
-0.054
-0.052
-0.052
-0.051
-0.05
-0.049
-0.049
-0.048
-0.048
-0.047
-0.047
-0.047
-0.046
-0.046
-0.045
-0.043
-0.039
-0.033
-0.026
-0.016
-0.003
0.006
0.013
0.02
0.026
0.026
0.028
0.028
0.026
0.023
0.019
0.013
0.008
0
-0.008
-0.016
-0.024
-0.032
-0.036
-0.04
-0.042
-0.042
-0.041
-0.041
-0.041
-0.04
-0.038
-0.037
-0.037
-0.036
-0.035
-0.035
-0.035
-0.034
-0.033
-0.033
-0.033
-0.033
-0.037
-0.04
-0.032
-0.013
0.019
0.066
0.122
0.18
0.238
0.294
0.347
0.389
0.407
0.4
0.369
0.316
0.248
0.181
0.114
0.047
-0.014
-0.06
-0.09
-0.103
-0.099
-0.085
-0.073
-0.065
-0.062
-0.061
-0.06
-0.059
-0.057
-0.056
-0.056
-0.056
-0.056
-0.055
-0.055
-0.055
-0.055
-0.055
-0.055
-0.053
-0.048
-0.042
-0.034
-0.024
-0.015
-0.005
0.003
0.011
0.021
0.031
0.041
0.051
0.065
0.074
0.082
0.089
0.094
0.092
0.094
0.095
0.093
0.094
0.094
0.094
0.092
0.092
0.089
0.086
0.082
0.078
0.073
0.065
0.056
0.046
0.035
0.024
0.015
0.006
-0.002
-0.011
-0.02
-0.028
-0.037
-0.045
-0.053
-0.057
-0.06
-0.061
-0.061
-0.059
-0.058
-0.058
-0.058
-0.057
-0.056
-0.056
-0.056
-0.055
-0.054
-0.054
-0.052
-0.051
-0.05
-0.05
-0.049
-0.048
-0.048
-0.048
-0.047
-0.047
-0.047
-0.046
-0.045
-0.044
-0.043
-0.043
-0.045
-0.046
-0.047
-0.047
-0.048
-0.046
-0.045
-0.044
-0.044
-0.043
-0.042
-0.041
-0.04
-0.04
-0.039
-0.039
-0.039
-0.039
-0.038
-0.038
-0.038
-0.037
-0.035
-0.034
-0.033
-0.031
-0.026
-0.021
-0.013
-0.004
0.006
0.014
0.021
0.028
0.033
0.035
0.036
0.037
0.037
0.034
0.03
0.024
0.017
0.008
0.001
-0.006
-0.013
-0.019
-0.023
-0.027
-0.03
-0.031
-0.031
-0.031
-0.03
-0.029
-0.029
-0.029
-0.03
-0.03
-0.03
-0.03
-0.029
-0.028
-0.026
-0.026
-0.025
-0.026
-0.03
-0.033
-0.025
-0.006
0.026
0.072
0.128
0.184
0.24
0.297
0.353
0.396
0.415
0.409
0.378
0.323
0.256
0.188
0.122
0.056
-0.007
-0.055
-0.085
-0.099
-0.095
-0.081
-0.069
-0.061
-0.056
-0.055
-0.054
-0.053
-0.054
-0.054
-0.053
-0.053
-0.052
-0.05
-0.05
-0.049
-0.049
-0.048
-0.047
-0.044
-0.034
-0.028
-0.02
-0.012
-0.003
0
0.008
0.017
0.026
0.035
0.043
0.052
0.062
0.07
0.078
0.085
0.09
0.092
0.093
0.095
0.096
0.097
0.096
0.095
0.094
0.09
0.088
0.086
0.082
0.078
0.073
0.066
0.058
0.048
0.038
0.026
0.015
0.004
-0.006
-0.015
-0.024
-0.033
-0.041
-0.05
-0.057
-0.062
-0.065
-0.068
-0.069
-0.068
-0.066
-0.066
-0.066
-0.065
-0.064
-0.063
-0.062
-0.061
-0.061
-0.06
-0.06
-0.06
-0.06
-0.06
-0.059
-0.059
-0.058
-0.058
-0.057
-0.056
-0.055
-0.054
-0.054
-0.054
-0.055
-0.055
-0.053
-0.053
-0.052
-0.05
-0.05
-0.051
-0.05
-0.05
-0.051
-0.051
-0.049
-0.048
-0.047
-0.047
-0.046
-0.046
-0.046
-0.046
-0.046
-0.046
-0.047
-0.047
-0.047
-0.046
-0.044
-0.041
-0.036
-0.03
-0.024
-0.016
-0.006
0.002
0.008
0.015
0.021
0.024
0.025
0.027
0.026
0.022
0.019
0.014
0.006
-0.001
-0.009
-0.018
-0.027
-0.034
-0.039
-0.043
-0.046
-0.046
-0.045
-0.045
-0.045
-0.045
-0.044
-0.045
-0.045
-0.045
-0.043
-0.043
-0.044
-0.043
-0.042
-0.043
-0.042
-0.042
-0.046
-0.049
-0.041
-0.022
0.009
0.055
0.112
0.171
0.229
0.285
0.341
0.385
0.405
0.4
0.37
0.317
0.249
0.181
0.114
0.047
-0.016
-0.064
-0.094
-0.109
-0.105
-0.091
-0.079
-0.071
-0.068
-0.067
-0.067
-0.067
-0.067
-0.066
-0.065
-0.064
-0.063
-0.063
-0.063
-0.063
-0.062
-0.062
-0.061
-0.059
-0.054
-0.048
-0.041
-0.031
-0.022
-0.013
-0.005
0.003
0.012
0.021
0.029
0.039
0.05
0.059
0.066
0.072
0.077
0.079
0.08
0.082
0.083
0.084
0.084
0.083
0.081
0.078
0.075
0.072
0.069
0.065
0.061
0.055
0.048
0.039
0.029
0.018
0.007
-0.004
-0.013
-0.022
-0.03
-0.039
-0.047
-0.056
-0.064
-0.07
-0.074
-0.076
-0.076
-0.075
-0.074
-0.072
-0.072
-0.073
-0.073
-0.073
-0.072
-0.07
-0.069
-0.067
-0.066
-0.064
-0.064
-0.063
-0.062
-0.063
-0.062
-0.062
-0.061
-0.061
-0.06
-0.06
-0.059
-0.058
-0.057
-0.057
-0.058
-0.057
-0.056
-0.056
-0.056
-0.055
-0.055
-0.054
-0.053
-0.052
-0.051
-0.05
-0.051
-0.051
-0.05
-0.049
-0.047
-0.046
-0.045
-0.044
-0.043
-0.043
-0.043
-0.043
-0.043
-0.041
-0.036
-0.03
-0.022
-0.013
-0.004
0.005
0.012
0.018
0.024
0.027
0.028
0.029
0.029
0.027
0.024
0.019
0.013
0.004
-0.004
-0.013
-0.022
-0.028
-0.032
-0.035
-0.036
-0.036
-0.036
-0.036
-0.036
-0.035
-0.034
-0.034
-0.035
-0.036
-0.037
-0.037
-0.037
-0.036
-0.036
-0.036
-0.035
-0.034
-0.037
-0.039
-0.032
-0.013
0.017
0.064
0.123
0.181
0.237
0.294
0.351
0.395
0.416
0.412
0.382
0.328
0.26
0.192
0.126
0.059
-0.006
-0.055
-0.086
-0.1
-0.098
-0.084
-0.072
-0.064
-0.059
-0.058
-0.056
-0.055
-0.054
-0.053
-0.051
-0.052
-0.052
-0.051
-0.05
-0.05
-0.048
-0.047
-0.046
-0.043
-0.039
-0.034
-0.027
-0.02
-0.011
-0.003
0.006
0.015
0.025
0.035
0.044
0.053
0.063
0.072
0.079
0.085
0.091
0.095
0.097
0.099
0.1
0.099
0.099
0.099
0.098
0.095
0.093
0.09
0.086
0.081
0.076
0.068
0.06
0.05
0.035
0.024
0.014
0.004
-0.005
-0.008
-0.015
-0.023
-0.031
-0.039
-0.047
-0.054
-0.055
-0.057
-0.057
-0.055
-0.054
-0.054
-0.053
-0.052
-0.052
-0.051
-0.051
-0.051
-0.051
-0.051
-0.05
-0.048
-0.048
-0.048
-0.047
-0.047
-0.047
-0.046
-0.046
-0.046
-0.046
-0.047
-0.047
-0.047
-0.047
-0.046
-0.045
-0.044
-0.043
-0.042
-0.041
-0.041
-0.042
-0.041
-0.04
-0.04
-0.04
-0.04
-0.04
-0.041
-0.041
-0.04
-0.04
-0.039
-0.038
-0.037
-0.037
-0.036
-0.035
-0.035
-0.034
-0.032
-0.028
-0.023
-0.017
-0.009
-0
0.008
0.016
0.023
0.03
0.034
0.037
0.038
0.037
0.032
0.028
0.022
0.015
0.007
-0
-0.009
-0.016
-0.022
-0.027
-0.031
-0.035
-0.036
-0.036
-0.036
-0.036
-0.035
-0.034
-0.034
-0.034
-0.033
-0.032
-0.032
-0.033
-0.033
-0.032
-0.032
-0.032
-0.031
-0.035
-0.039
-0.033
-0.015
0.015
0.06
0.116
0.174
0.232
0.289
0.344
0.39
0.412
0.408
0.38
0.328
0.261
0.192
0.124
0.057
-0.007
-0.056
-0.088
-0.103
-0.101
-0.089
-0.076
-0.067
-0.063
-0.062
-0.06
-0.059
-0.059
-0.058
-0.057
-0.058
-0.058
-0.057
-0.057
-0.056
-0.056
-0.056
-0.056
-0.054
-0.05
-0.044
-0.037
-0.027
-0.017
-0.008
0.001
0.009
0.019
0.028
0.038
0.047
0.058
0.067
0.074
0.08
0.082
0.085
0.086
0.088
0.089
0.091
0.091
0.09
0.088
0.085
0.081
0.078
0.075
0.071
0.066
0.06
0.052
0.043
0.032
0.021
0.01
-0
-0.01
-0.019
-0.027
-0.036
-0.044
-0.052
-0.06
-0.066
-0.073
-0.074
-0.075
-0.073
-0.072
-0.068
-0.067
-0.066
-0.065
-0.065
-0.064
-0.063
-0.063
-0.063
-0.061
-0.061
-0.061
-0.061
-0.06
-0.06
-0.059
-0.058
-0.057
-0.057
-0.057
-0.057
-0.057
-0.057
-0.057
-0.056
-0.056
-0.055
-0.055
-0.054
-0.053
-0.052
-0.052
-0.052
-0.051
-0.051
-0.05
-0.049
-0.049
-0.049
-0.049
-0.048
-0.048
-0.048
-0.046
-0.046
-0.046
-0.045
-0.044
-0.045
-0.045
-0.044
-0.04
-0.035
-0.028
-0.019
-0.01
-0.001
0.005
0.012
0.017
0.02
0.021
0.023
0.023
0.022
0.019
0.015
0.009
0.001
-0.007
-0.015
-0.023
-0.03
-0.035
-0.04
-0.042
-0.042
-0.042
-0.043
-0.043
-0.043
-0.043
-0.043
-0.043
-0.043
-0.042
-0.042
-0.042
-0.041
-0.04
-0.04
-0.039
-0.04
-0.044
-0.048
-0.042
-0.024
0.007
0.052
0.11
0.167
0.224
0.28
0.335
0.381
0.403
0.4
0.372
0.319
0.251
0.183
0.116
0.05
-0.014
-0.064
-0.096
-0.111
-0.109
-0.095
-0.082
-0.074
-0.069
-0.068
-0.067
-0.067
-0.067
-0.065
-0.064
-0.064
-0.063
-0.062
-0.062
-0.062
-0.062
-0.061
-0.061
-0.059
-0.055
-0.048
-0.04
-0.031
-0.022
-0.013
-0.005
0.004
0.014
0.023
0.032
0.043
0.053
0.062
0.07
0.077
0.085
0.089
0.091
0.093
0.093
0.09
0.09
0.088
0.085
0.083
0.081
0.078
0.076
0.072
0.067
0.06
0.051
0.042
0.032
0.022
0.013
0.003
-0.006
-0.014
-0.023
-0.032
-0.04
-0.049
-0.057
-0.063
-0.066
-0.068
-0.069
-0.069
-0.068
-0.069
-0.069
-0.067
-0.065
-0.064
-0.063
-0.061
-0.06
-0.06
-0.058
-0.057
-0.056
-0.056
-0.056
-0.056
-0.056
-0.056
-0.057
-0.056
-0.056
-0.054
-0.053
-0.05
-0.05
-0.05
-0.049
-0.05
-0.05
-0.049
-0.048
-0.048
-0.049
-0.049
-0.048
-0.047
-0.046
-0.045
-0.043
-0.043
-0.042
-0.041
-0.041
-0.04
-0.04
-0.039
-0.039
-0.038
-0.038
-0.037
-0.037
-0.035
-0.028
-0.023
-0.016
-0.007
0.002
0.008
0.015
0.022
0.028
0.033
0.034
0.035
0.036
0.034
0.031
0.025
0.02
0.012
0.004
-0.005
-0.014
-0.022
-0.027
-0.03
-0.032
-0.032
-0.031
-0.032
-0.032
-0.033
-0.033
-0.033
-0.033
-0.033
-0.032
-0.032
-0.032
-0.031
-0.03
-0.03
-0.03
-0.031
-0.034
-0.038
-0.032
-0.014
0.016
0.061
0.117
0.175
0.233
0.289
0.344
0.39
0.413
0.41
0.384
0.334
0.268
0.2
0.132
0.064
-0.001
-0.051
-0.084
-0.1
-0.099
-0.086
-0.072
-0.062
-0.057
-0.055
-0.056
-0.056
-0.057
-0.057
-0.056
-0.052
-0.051
-0.05
-0.05
-0.051
-0.051
-0.051
-0.05
-0.048
-0.043
-0.037
-0.029
-0.02
-0.01
-0.001
0.008
0.017
0.026
0.036
0.045
0.054
0.065
0.074
0.083
0.089
0.092
0.093
0.093
0.093
0.094
0.095
0.095
0.095
0.094
0.092
0.091
0.089
0.086
0.081
0.076
0.069
0.061
0.051
0.041
0.03
0.019
0.009
0
-0.009
-0.018
-0.027
-0.035
-0.044
-0.053
-0.058
-0.061
-0.063
-0.063
-0.062
-0.061
-0.06
-0.06
-0.059
-0.058
-0.057
-0.056
-0.056
-0.055
-0.055
-0.055
-0.055
-0.054
-0.054
-0.054
-0.054
-0.053
-0.053
-0.052
-0.051
-0.051
-0.052
-0.052
-0.052
-0.052
-0.052
-0.051
-0.05
-0.05
-0.048
-0.046
-0.046
-0.045
-0.044
-0.041
-0.041
-0.041
-0.04
-0.039
-0.042
-0.042
-0.041
-0.042
-0.043
-0.043
-0.042
-0.043
-0.042
-0.041
-0.041
-0.04
-0.037
-0.032
-0.027
-0.02
-0.012
-0.004
0.004
0.01
0.016
0.022
0.026
0.027
0.028
0.028
0.026
0.023
0.018
0.012
0.005
-0.004
-0.013
-0.021
-0.028
-0.033
-0.037
-0.038
-0.038
-0.037
-0.037
-0.036
-0.035
-0.035
-0.034
-0.035
-0.036
-0.036
-0.036
-0.036
-0.035
-0.034
-0.034
-0.034
-0.035
-0.027
-0.032
-0.028
-0.011
0.042
0.074
0.13
0.188
0.244
0.274
0.33
0.376
0.399
0.398
0.373
0.324
0.257
0.19
0.125
0.059
-0.006
-0.057
-0.091
-0.108
-0.108
-0.096
-0.082
-0.074
-0.069
-0.067
-0.066
-0.066
-0.066
-0.066
-0.064
-0.064
-0.063
-0.062
-0.064
-0.064
-0.064
-0.063
-0.062
-0.056
-0.052
-0.045
-0.038
-0.03
-0.021
-0.013
-0.006
0.002
0.011
0.021
0.03
0.04
0.05
0.059
0.065
0.07
0.075
0.077
0.08
0.081
0.082
0.083
0.083
0.082
0.081
0.078
0.076
0.073
0.07
0.066
0.062
0.056
0.048
0.039
0.029
0.019
0.009
-0.002
-0.011
-0.02
-0.03
-0.039
-0.048
-0.057
-0.065
-0.07
-0.074
-0.076
-0.076
-0.075
-0.075
-0.074
-0.074
-0.073
-0.071
-0.069
-0.068
-0.067
-0.067
-0.066
-0.066
-0.065
-0.064
-0.063
-0.061
-0.06
-0.06
-0.06
-0.06
-0.061
-0.061
-0.061
-0.06
-0.06
-0.059
-0.059
-0.058
-0.058
-0.059
-0.059
-0.06
-0.06
-0.06
-0.059
-0.058
-0.055
-0.054
-0.053
-0.053
-0.053
-0.052
-0.052
-0.051
-0.051
-0.051
-0.05
-0.05
-0.049
-0.048
-0.047
-0.046
-0.044
-0.04
-0.035
-0.029
-0.021
-0.012
-0.004
0.004
0.011
0.017
0.02
0.023
0.023
0.023
0.022
0.019
0.015
0.01
0.003
-0.005
-0.013
-0.022
-0.029
-0.035
-0.039
-0.041
-0.042
-0.042
-0.043
-0.044
-0.043
-0.042
-0.041
-0.041
-0.041
-0.04
-0.04
-0.04
-0.04
-0.039
-0.038
-0.038
-0.039
-0.035
-0.039
-0.034
-0.016
0.014
0.05
0.105
0.161
0.218
0.275
0.33
0.375
0.399
0.398
0.374
0.326
0.262
0.196
0.128
0.06
-0.005
-0.056
-0.09
-0.107
-0.107
-0.094
-0.082
-0.073
-0.068
-0.066
-0.064
-0.063
-0.062
-0.061
-0.061
-0.061
-0.061
-0.06
-0.059
-0.058
-0.057
-0.056
-0.055
-0.053
-0.049
-0.044
-0.037
-0.027
-0.016
-0.007
0.002
0.011
0.02
0.029
0.038
0.047
0.056
0.065
0.073
0.079
0.085
0.089
0.091
0.092
0.092
0.092
0.091
0.091
0.09
0.089
0.086
0.084
0.08
0.076
0.071
0.065
0.058
0.048
0.038
0.028
0.018
0.007
-0.001
-0.01
-0.019
-0.028
-0.036
-0.045
-0.053
-0.058
-0.061
-0.063
-0.063
-0.062
-0.061
-0.059
-0.058
-0.056
-0.055
-0.055
-0.056
-0.055
-0.055
-0.054
-0.054
-0.053
-0.052
-0.053
-0.053
-0.053
-0.052
-0.052
-0.05
-0.048
-0.048
-0.047
-0.046
-0.046
-0.046
-0.045
-0.043
-0.043
-0.043
-0.042
-0.041
-0.041
-0.04
-0.039
-0.037
-0.036
-0.036
-0.036
-0.035
-0.036
-0.037
-0.036
-0.036
-0.036
-0.035
-0.034
-0.034
-0.034
-0.034
-0.033
-0.033
-0.031
-0.027
-0.022
-0.016
-0.007
0.002
0.01
0.017
0.024
0.03
0.034
0.036
0.036
0.036
0.035
0.032
0.029
0.024
0.016
0.008
-0
-0.009
-0.017
-0.023
-0.027
-0.03
-0.031
-0.031
-0.031
-0.031
-0.03
-0.029
-0.029
-0.028
-0.028
-0.028
-0.029
-0.029
-0.028
-0.026
-0.026
-0.025
-0.026
-0.019
-0.024
-0.019
-0.002
0.028
0.06
0.115
0.173
0.23
0.286
0.342
0.391
0.418
0.419
0.394
0.346
0.278
0.209
0.142
0.074
0.008
-0.045
-0.08
-0.099
-0.099
-0.086
-0.072
-0.063
-0.057
-0.055
-0.055
-0.054
-0.054
-0.053
-0.052
-0.051
-0.05
-0.049
-0.047
-0.047
-0.046
-0.045
-0.044
-0.042
-0.037
-0.031
-0.023
-0.012
-0.002
0.008
0.016
0.026
0.035
0.045
0.055
0.066
0.077
0.087
0.095
0.101
0.107
0.11
0.111
0.111
0.112
0.112
0.111
0.11
0.108
0.104
0.1
0.095
0.091
0.086
0.082
0.075
0.066
0.056
0.046
0.034
0.023
0.012
0.002
-0.007
-0.017
-0.026
-0.034
-0.044
-0.052
-0.058
-0.062
-0.064
-0.065
-0.064
-0.061
-0.061
-0.059
-0.058
-0.057
-0.058
-0.059
-0.059
-0.059
-0.058
-0.057
-0.056
-0.055
-0.054
-0.054
-0.052
-0.052
-0.052
-0.051
-0.052
-0.052
-0.052
-0.051
-0.051
-0.051
-0.05
-0.05
-0.051
-0.05
-0.049
-0.049
-0.049
-0.048
-0.048
-0.048
-0.048
-0.048
-0.049
-0.049
-0.049
-0.048
-0.047
-0.047
-0.047
-0.046
-0.046
-0.046
-0.045
-0.044
-0.044
-0.043
-0.041
-0.038
-0.034
-0.027
-0.019
-0.009
0.001
0.01
0.018
0.023
0.026
0.028
0.028
0.023
0.022
0.019
0.016
0.011
0.01
0.002
-0.005
-0.013
-0.019
-0.025
-0.029
-0.031
-0.031
-0.031
-0.029
-0.027
-0.026
-0.025
-0.024
-0.024
-0.023
-0.023
-0.022
-0.021
-0.021
-0.021
-0.02
-0.02
-0.021
-0.025
-0.029
-0.025
-0.007
0.024
0.068
0.127
0.187
0.248
0.308
0.367
0.418
0.445
0.445
0.418
0.366
0.296
0.223
0.15
0.078
0.008
-0.048
-0.086
-0.105
-0.107
-0.094
-0.08
-0.07
-0.066
-0.064
-0.063
-0.063
-0.064
-0.064
-0.067
-0.068
-0.068
-0.067
-0.068
-0.067
-0.069
-0.07
-0.072
-0.071
-0.068
-0.062
-0.055
-0.046
-0.038
-0.029
-0.022
-0.013
-0.004
0.004
0.012
0.021
0.03
0.039
0.047
0.053
0.059
0.063
0.065
0.066
0.069
0.07
0.07
0.071
0.071
0.068
0.066
0.064
0.061
0.058
0.054
0.049
0.043
0.034
0.025
0.016
0.007
-0.002
-0.01
-0.018
-0.025
-0.034
-0.042
-0.051
-0.058
-0.064
-0.067
-0.068
-0.069
-0.068
-0.067
-0.066
-0.066
-0.065
-0.063
-0.062
-0.062
-0.062
-0.061
-0.06
-0.06
-0.06
-0.059
-0.059
-0.059
-0.058
-0.057
-0.058
-0.057
-0.057
-0.056
-0.056
-0.056
-0.055
-0.055
-0.055
-0.055
-0.054
-0.054
-0.054
-0.053
-0.052
-0.052
-0.052
-0.052
-0.052
-0.052
-0.052
-0.05
-0.05
-0.05
-0.05
-0.049
-0.049
-0.049
-0.049
-0.049
-0.049
-0.048
-0.048
-0.047
-0.046
-0.042
-0.037
-0.03
-0.022
-0.013
-0.004
0.003
0.009
0.014
0.018
0.019
0.019
0.018
0.016
0.013
0.009
0.004
-0.002
-0.009
-0.016
-0.023
-0.03
-0.035
-0.04
-0.043
-0.045
-0.045
-0.045
-0.044
-0.044
-0.043
-0.043
-0.043
-0.043
-0.043
-0.043
-0.044
-0.044
-0.043
-0.043
-0.043
-0.043
-0.037
-0.041
-0.036
-0.019
0.008
0.041
0.095
0.152
0.208
0.263
0.318
0.367
0.396
0.398
0.377
0.331
0.267
0.198
0.133
0.067
0.002
-0.051
-0.087
-0.107
-0.109
-0.096
-0.083
-0.073
-0.069
-0.067
-0.067
-0.067
-0.065
-0.065
-0.065
-0.065
-0.064
-0.063
-0.062
-0.061
-0.06
-0.059
-0.058
-0.056
-0.052
-0.046
-0.039
-0.03
-0.021
-0.012
-0.003
0.007
0.016
0.027
0.036
0.046
0.057
0.066
0.073
0.078
0.083
0.086
0.087
0.09
0.092
0.093
0.093
0.093
0.093
0.09
0.087
0.083
0.08
0.077
0.073
0.067
0.06
0.051
0.039
0.028
0.018
0.008
-0.001
-0.01
-0.018
-0.027
-0.036
-0.045
-0.054
-0.06
-0.063
-0.066
-0.066
-0.064
-0.063
-0.062
-0.061
-0.061
-0.062
-0.062
-0.062
-0.061
-0.06
-0.059
-0.058
-0.056
-0.055
-0.054
-0.052
-0.051
-0.051
-0.051
-0.051
-0.051
-0.051
-0.051
-0.051
-0.051
-0.05
-0.05
-0.048
-0.047
-0.046
-0.045
-0.044
-0.044
-0.044
-0.044
-0.045
-0.045
-0.045
-0.044
-0.043
-0.041
-0.04
-0.039
-0.038
-0.039
-0.039
-0.04
-0.04
-0.041
-0.041
-0.04
-0.04
-0.039
-0.035
-0.029
-0.022
-0.013
-0.004
0.004
0.011
0.017
0.022
0.027
0.029
0.031
0.032
0.031
0.028
0.023
0.017
0.009
0
-0.008
-0.017
-0.024
-0.03
-0.034
-0.036
-0.037
-0.036
-0.035
-0.035
-0.035
-0.035
-0.036
-0.037
-0.037
-0.036
-0.036
-0.035
-0.034
-0.033
-0.033
-0.033
-0.033
-0.036
-0.04
-0.036
-0.02
0.009
0.05
0.103
0.159
0.216
0.273
0.33
0.38
0.409
0.411
0.389
0.342
0.276
0.208
0.141
0.074
0.008
-0.045
-0.081
-0.101
-0.104
-0.093
-0.08
-0.072
-0.067
-0.065
-0.063
-0.062
-0.062
-0.061
-0.06
-0.06
-0.06
-0.058
-0.057
-0.057
-0.055
-0.054
-0.054
-0.052
-0.049
-0.045
-0.039
-0.031
-0.021
-0.012
-0.003
0.006
0.015
0.024
0.034
0.044
0.055
0.064
0.071
0.076
0.08
0.084
0.086
0.087
0.088
0.088
0.088
0.087
0.086
0.082
0.078
0.075
0.071
0.068
0.064
0.059
0.052
0.044
0.034
0.023
0.013
0.003
-0.007
-0.016
-0.025
-0.033
-0.042
-0.051
-0.059
-0.065
-0.069
-0.072
-0.073
-0.073
-0.072
-0.072
-0.072
-0.072
-0.07
-0.069
-0.068
-0.067
-0.066
-0.067
-0.067
-0.067
-0.067
-0.067
-0.066
-0.065
-0.063
-0.062
-0.061
-0.06
-0.059
-0.059
-0.058
-0.058
-0.057
-0.056
-0.056
-0.055
-0.055
-0.055
-0.054
-0.054
-0.053
-0.053
-0.052
-0.052
-0.051
-0.051
-0.05
-0.05
-0.05
-0.049
-0.048
-0.047
-0.047
-0.046
-0.045
-0.045
-0.044
-0.042
-0.042
-0.04
-0.037
-0.032
-0.026
-0.017
-0.008
-0
0.007
0.013
0.018
0.023
0.025
0.026
0.027
0.025
0.022
0.017
0.013
0.006
-0.002
-0.011
-0.019
-0.027
-0.033
-0.037
-0.04
-0.041
-0.041
-0.04
-0.039
-0.038
-0.038
-0.037
-0.037
-0.037
-0.037
-0.037
-0.037
-0.038
-0.037
-0.037
-0.036
-0.037
-0.039
-0.042
-0.039
-0.024
0.003
0.044
0.096
0.152
0.207
0.261
0.314
0.362
0.391
0.395
0.375
0.331
0.269
0.202
0.136
0.071
0.008
-0.044
-0.08
-0.1
-0.104
-0.093
-0.08
-0.071
-0.066
-0.065
-0.064
-0.064
-0.063
-0.062
-0.061
-0.059
-0.059
-0.058
-0.057
-0.056
-0.055
-0.054
-0.054
-0.052
-0.049
-0.044
-0.037
-0.028
-0.019
-0.01
-0
0.008
0.016
0.025
0.034
0.043
0.053
0.062
0.069
0.075
0.08
0.083
0.084
0.085
0.086
0.086
0.087
0.087
0.085
0.084
0.082
0.08
0.077
0.074
0.069
0.063
0.056
0.047
0.038
0.028
0.019
0.01
0.001
-0.007
-0.015
-0.024
-0.033
-0.041
-0.049
-0.055
-0.058
-0.06
-0.06
-0.059
-0.057
-0.057
-0.057
-0.056
-0.056
-0.056
-0.055
-0.054
-0.053
-0.052
-0.052
-0.051
-0.051
-0.051
-0.05
-0.049
-0.047
-0.046
-0.043
-0.042
-0.041
-0.042
-0.041
-0.041
-0.041
-0.04
-0.039
-0.039
-0.039
-0.04
-0.039
-0.039
-0.039
-0.038
-0.037
-0.036
-0.036
-0.035
-0.034
-0.034
-0.033
-0.032
-0.031
-0.03
-0.03
-0.029
-0.029
-0.03
-0.029
-0.028
-0.028
-0.026
-0.023
-0.018
-0.01
-0.002
0.008
0.016
0.023
0.028
0.033
0.036
0.037
0.037
0.037
0.035
0.032
0.028
0.022
0.016
0.009
0.002
-0.006
-0.011
-0.017
-0.021
-0.025
-0.026
-0.026
-0.025
-0.025
-0.024
-0.024
-0.023
-0.023
-0.023
-0.023
-0.023
-0.022
-0.023
-0.022
-0.021
-0.021
-0.021
-0.023
-0.028
-0.025
-0.011
0.039
0.078
0.13
0.186
0.241
0.271
0.324
0.372
0.401
0.405
0.386
0.343
0.282
0.215
0.15
0.086
0.023
-0.03
-0.067
-0.086
-0.089
-0.079
-0.066
-0.056
-0.051
-0.049
-0.048
-0.048
-0.048
-0.047
-0.046
-0.046
-0.046
-0.045
-0.043
-0.043
-0.042
-0.041
-0.041
-0.041
-0.038
-0.033
-0.025
-0.017
-0.007
0.002
0.01
0.018
0.027
0.035
0.044
0.053
0.063
0.071
0.079
0.085
0.089
0.091
0.093
0.095
0.096
0.097
0.097
0.096
0.093
0.091
0.088
0.085
0.083
0.08
0.075
0.069
0.061
0.052
0.043
0.033
0.024
0.014
0.004
-0.005
-0.014
-0.023
-0.031
-0.039
-0.047
-0.053
-0.057
-0.058
-0.059
-0.058
-0.057
-0.057
-0.057
-0.057
-0.056
-0.054
-0.054
-0.053
-0.052
-0.053
-0.054
-0.053
-0.053
-0.052
-0.052
-0.051
-0.05
-0.05
-0.05
-0.048
-0.048
-0.048
-0.047
-0.046
-0.046
-0.045
-0.045
-0.045
-0.045
-0.045
-0.045
-0.046
-0.046
-0.045
-0.045
-0.044
-0.043
-0.043
-0.044
-0.045
-0.045
-0.044
-0.044
-0.042
-0.041
-0.04
-0.04
-0.04
-0.039
-0.039
-0.038
-0.037
-0.034
-0.03
-0.024
-0.016
-0.007
0.001
0.009
0.015
0.021
0.025
0.027
0.028
0.028
0.027
0.024
0.019
0.008
0.001
-0.007
-0.015
-0.023
-0.024
-0.03
-0.034
-0.037
-0.038
-0.039
-0.039
-0.04
-0.041
-0.04
-0.04
-0.04
-0.04
-0.039
-0.04
-0.04
-0.039
-0.039
-0.039
-0.038
-0.038
-0.04
-0.044
-0.042
-0.028
-0.003
0.035
0.087
0.143
0.198
0.252
0.305
0.353
0.383
0.388
0.369
0.327
0.264
0.198
0.132
0.066
0.001
-0.054
-0.091
-0.111
-0.114
-0.103
-0.088
-0.078
-0.072
-0.071
-0.07
-0.07
-0.07
-0.069
-0.068
-0.068
-0.067
-0.067
-0.066
-0.066
-0.067
-0.065
-0.064
-0.062
-0.059
-0.053
-0.047
-0.038
-0.029
-0.02
-0.011
-0.004
0.004
0.013
0.022
0.031
0.044
0.054
0.061
0.067
0.071
0.071
0.073
0.074
0.076
0.077
0.077
0.077
0.075
0.073
0.07
0.068
0.064
0.06
0.055
0.049
0.042
0.033
0.023
0.013
0.003
-0.007
-0.016
-0.025
-0.033
-0.041
-0.049
-0.059
-0.067
-0.074
-0.079
-0.081
-0.081
-0.081
-0.079
-0.078
-0.077
-0.076
-0.074
-0.073
-0.073
-0.073
-0.071
-0.071
-0.07
-0.069
-0.069
-0.068
-0.068
-0.068
-0.067
-0.068
-0.068
-0.068
-0.068
-0.067
-0.066
-0.065
-0.064
-0.064
-0.063
-0.063
-0.063
-0.063
-0.063
-0.062
-0.062
-0.062
-0.06
-0.058
-0.057
-0.055
-0.052
-0.052
-0.052
-0.051
-0.051
-0.053
-0.052
-0.052
-0.051
-0.051
-0.049
-0.048
-0.047
-0.046
-0.042
-0.038
-0.032
-0.024
-0.015
-0.007
0.001
0.008
0.014
0.017
0.019
0.02
0.02
0.018
0.016
0.011
0.006
-0.001
-0.009
-0.016
-0.024
-0.031
-0.037
-0.041
-0.043
-0.044
-0.044
-0.044
-0.043
-0.043
-0.043
-0.042
-0.041
-0.042
-0.041
-0.042
-0.042
-0.042
-0.043
-0.042
-0.041
-0.041
-0.044
-0.048
-0.047
-0.034
-0.008
0.032
0.085
0.142
0.223
0.28
0.336
0.388
0.419
0.4
0.381
0.339
0.277
0.21
0.145
0.078
0.011
-0.045
-0.084
-0.106
-0.112
-0.102
-0.088
-0.078
-0.072
-0.068
-0.067
-0.066
-0.067
-0.066
-0.065
-0.064
-0.064
-0.062
-0.062
-0.061
-0.061
-0.061
-0.06
-0.059
-0.056
-0.05
-0.042
-0.032
-0.022
-0.011
-0.001
0.007
0.016
0.025
0.034
0.043
0.052
0.061
0.069
0.075
0.08
0.084
0.086
0.088
0.089
0.091
0.091
0.09
0.09
0.089
0.087
0.084
0.08
0.076
0.07
0.063
0.057
0.048
0.038
0.028
0.018
0.008
-0.002
-0.01
-0.018
-0.027
-0.035
-0.043
-0.051
-0.056
-0.06
-0.062
-0.062
-0.062
-0.061
-0.061
-0.062
-0.062
-0.061
-0.06
-0.059
-0.058
-0.058
-0.057
-0.057
-0.056
-0.056
-0.053
-0.053
-0.052
-0.052
-0.052
-0.051
-0.05
-0.05
-0.049
-0.047
-0.046
-0.045
-0.044
-0.043
-0.043
-0.043
-0.042
-0.041
-0.041
-0.041
-0.041
-0.041
-0.041
-0.041
-0.04
-0.04
-0.039
-0.039
-0.038
-0.039
-0.037
-0.037
-0.036
-0.035
-0.033
-0.032
-0.031
-0.031
-0.031
-0.028
-0.024
-0.019
-0.011
-0.003
0.005
0.012
0.019
0.024
0.029
0.032
0.034
0.035
0.034
0.031
0.026
0.021
0.014
0.007
-0
-0.008
-0.015
-0.021
-0.026
-0.029
-0.031
-0.031
-0.03
-0.03
-0.029
-0.029
-0.028
-0.029
-0.03
-0.03
-0.03
-0.031
-0.03
-0.029
-0.029
-0.029
-0.029
-0.031
-0.036
-0.034
-0.02
0.006
0.045
0.098
0.156
0.233
0.288
0.342
0.392
0.424
0.409
0.391
0.35
0.288
0.22
0.152
0.087
0.022
-0.035
-0.075
-0.097
-0.103
-0.093
-0.08
-0.07
-0.064
-0.062
-0.06
-0.06
-0.059
-0.059
-0.058
-0.057
-0.057
-0.056
-0.054
-0.053
-0.052
-0.051
-0.051
-0.05
-0.048
-0.043
-0.036
-0.026
-0.015
-0.006
0.003
0.01
0.018
0.027
0.036
0.045
0.055
0.065
0.073
0.079
0.083
0.086
0.088
0.088
0.089
0.09
0.09
0.089
0.089
0.088
0.085
0.082
0.08
0.076
0.072
0.066
0.06
0.051
0.041
0.03
0.02
0.01
-0.001
-0.01
-0.019
-0.028
-0.037
-0.046
-0.054
-0.06
-0.065
-0.067
-0.068
-0.067
-0.066
-0.066
-0.065
-0.064
-0.062
-0.061
-0.062
-0.061
-0.06
-0.06
-0.06
-0.058
-0.057
-0.058
-0.057
-0.057
-0.056
-0.057
-0.056
-0.056
-0.056
-0.056
-0.056
-0.055
-0.055
-0.055
-0.055
-0.054
-0.054
-0.053
-0.052
-0.051
-0.051
-0.05
-0.049
-0.049
-0.048
-0.047
-0.047
-0.048
-0.048
-0.049
-0.049
-0.049
-0.049
-0.049
-0.048
-0.047
-0.047
-0.046
-0.046
-0.045
-0.043
-0.038
-0.032
-0.023
-0.014
-0.005
0.003
0.009
0.015
0.018
0.02
0.021
0.021
0.02
0.017
0.014
0.01
0.003
-0.005
-0.013
-0.022
-0.029
-0.034
-0.037
-0.04
-0.041
-0.042
-0.043
-0.044
-0.044
-0.043
-0.042
-0.042
-0.042
-0.041
-0.042
-0.042
-0.041
-0.041
-0.04
-0.04
-0.04
-0.043
-0.048
-0.047
-0.034
-0.008
0.031
0.084
0.141
0.223
0.279
0.335
0.387
0.42
0.401
0.384
0.342
0.28
0.214
0.147
0.079
0.012
-0.046
-0.086
-0.108
-0.113
-0.103
-0.09
-0.08
-0.075
-0.073
-0.073
-0.072
-0.072
-0.071
-0.069
-0.069
-0.069
-0.068
-0.066
-0.066
-0.066
-0.065
-0.064
-0.062
-0.058
-0.053
-0.045
-0.038
-0.029
-0.02
-0.011
-0.003
0.006
0.015
0.024
0.033
0.042
0.052
0.06
0.067
0.073
0.076
0.077
0.079
0.08
0.081
0.082
0.082
0.082
0.08
0.077
0.074
0.068
0.063
0.059
0.053
0.047
0.041
0.031
0.021
0.01
-0
-0.01
-0.019
-0.028
-0.036
-0.044
-0.052
-0.06
-0.067
-0.071
-0.074
-0.076
-0.075
-0.074
-0.073
-0.072
-0.071
-0.07
-0.069
-0.068
-0.066
-0.066
-0.065
-0.064
-0.063
-0.062
-0.06
-0.06
-0.059
-0.057
-0.056
-0.054
-0.052
-0.051
-0.051
-0.051
-0.051
-0.052
-0.051
-0.05
-0.049
-0.047
-0.046
-0.045
-0.045
-0.044
-0.043
-0.041
-0.04
-0.039
-0.039
-0.038
-0.038
-0.038
-0.038
-0.036
-0.035
-0.035
-0.035
-0.034
-0.035
-0.035
-0.035
-0.035
-0.034
-0.031
-0.025
-0.018
-0.009
0.001
0.01
0.018
0.025
0.03
0.035
0.038
0.039
0.04
0.039
0.037
0.033
0.029
0.022
0.014
0.005
-0.009
-0.017
-0.025
-0.029
-0.032
-0.028
-0.029
-0.028
-0.029
-0.029
-0.028
-0.028
-0.028
-0.028
-0.028
-0.029
-0.029
-0.029
-0.027
-0.026
-0.026
-0.025
-0.022
-0.028
-0.028
-0.015
0.009
0.043
0.098
0.159
0.22
0.279
0.338
0.391
0.428
0.438
0.422
0.38
0.292
0.22
0.148
0.078
0.01
-0.025
-0.068
-0.092
-0.099
-0.09
-0.075
-0.064
-0.057
-0.053
-0.051
-0.051
-0.05
-0.05
-0.05
-0.052
-0.052
-0.052
-0.051
-0.051
-0.05
-0.049
-0.046
-0.045
-0.041
-0.036
-0.029
-0.023
-0.014
-0.005
0.004
0.012
0.022
0.032
0.042
0.051
0.06
0.069
0.077
0.083
0.088
0.091
0.093
0.094
0.095
0.096
0.096
0.096
0.095
0.092
0.09
0.087
0.081
0.077
0.072
0.067
0.06
0.052
0.042
0.03
0.019
0.008
-0.002
-0.011
-0.019
-0.028
-0.036
-0.044
-0.052
-0.059
-0.063
-0.066
-0.067
-0.067
-0.067
-0.066
-0.065
-0.064
-0.063
-0.061
-0.06
-0.06
-0.059
-0.058
-0.057
-0.056
-0.055
-0.054
-0.054
-0.053
-0.052
-0.052
-0.051
-0.051
-0.052
-0.052
-0.052
-0.051
-0.05
-0.05
-0.049
-0.048
-0.048
-0.047
-0.046
-0.045
-0.045
-0.045
-0.043
-0.042
-0.042
-0.041
-0.04
-0.039
-0.039
-0.039
-0.037
-0.037
-0.036
-0.034
-0.033
-0.035
-0.035
-0.036
-0.037
-0.037
-0.035
-0.03
-0.024
-0.017
-0.007
0.002
0.01
0.018
0.025
0.03
0.033
0.034
0.033
0.032
0.029
0.024
0.018
0.011
0.003
-0.006
-0.013
-0.021
-0.028
-0.033
-0.035
-0.037
-0.037
-0.037
-0.036
-0.036
-0.036
-0.035
-0.035
-0.034
-0.034
-0.034
-0.033
-0.033
-0.033
-0.034
-0.034
-0.035
-0.038
-0.044
-0.043
-0.03
-0.004
0.035
0.088
0.145
0.201
0.257
0.312
0.364
0.399
0.408
0.393
0.353
0.291
0.223
0.155
0.088
0.02
-0.039
-0.079
-0.103
-0.11
-0.1
-0.085
-0.075
-0.069
-0.067
-0.067
-0.068
-0.068
-0.068
-0.067
-0.065
-0.065
-0.064
-0.063
-0.063
-0.064
-0.064
-0.062
-0.06
-0.056
-0.049
-0.041
-0.034
-0.024
-0.014
-0.006
0.001
0.01
0.018
0.028
0.038
0.049
0.059
0.067
0.073
0.079
0.081
0.082
0.083
0.083
0.082
0.082
0.081
0.081
0.08
0.078
0.075
0.073
0.069
0.063
0.058
0.051
0.042
0.031
0.021
0.011
-0
-0.009
-0.017
-0.026
-0.035
-0.044
-0.052
-0.059
-0.065
-0.069
-0.072
-0.073
-0.073
-0.072
-0.072
-0.072
-0.071
-0.07
-0.07
-0.07
-0.069
-0.067
-0.066
-0.065
-0.064
-0.062
-0.061
-0.059
-0.058
-0.057
-0.056
-0.056
-0.055
-0.053
-0.05
-0.047
-0.045
-0.043
-0.042
-0.039
-0.038
-0.037
-0.036
-0.036
-0.037
-0.038
-0.038
-0.037
-0.036
-0.036
-0.036
-0.036
-0.037
-0.038
-0.039
-0.039
-0.04
-0.04
-0.039
-0.039
-0.038
-0.037
-0.037
-0.037
-0.036
-0.034
-0.031
-0.027
-0.02
-0.013
-0.005
0.003
0.01
0.016
0.021
0.024
0.025
0.026
0.024
0.022
0.019
0.014
0.008
0.001
-0.007
-0.014
-0.022
-0.028
-0.031
-0.033
-0.034
-0.034
-0.033
-0.032
-0.032
-0.032
-0.032
-0.033
-0.034
-0.034
-0.034
-0.034
-0.033
-0.032
-0.031
-0.031
-0.031
-0.033
-0.037
-0.037
-0.026
-0.004
0.032
0.08
0.135
0.19
0.245
0.298
0.348
0.382
0.392
0.378
0.34
0.281
0.215
0.149
0.084
0.018
-0.039
-0.08
-0.104
-0.11
-0.101
-0.086
-0.076
-0.069
-0.066
-0.068
-0.068
-0.068
-0.068
-0.068
-0.065
-0.064
-0.064
-0.064
-0.064
-0.064
-0.064
-0.062
-0.06
-0.057
-0.051
-0.044
-0.037
-0.03
-0.021
-0.012
-0.003
0.005
0.016
0.026
0.035
0.044
0.054
0.062
0.068
0.073
0.077
0.079
0.08
0.081
0.082
0.083
0.083
0.083
0.081
0.078
0.075
0.072
0.068
0.063
0.058
0.052
0.045
0.036
0.026
0.018
0.008
-0.001
-0.01
-0.018
-0.027
-0.036
-0.044
-0.052
-0.059
-0.064
-0.067
-0.067
-0.067
-0.065
-0.064
