-0.099
-0.099
-0.099
-0.097
-0.095
-0.094
-0.093
-0.092
-0.092
-0.091
-0.09
-0.09
-0.081
-0.08
-0.079
-0.077
-0.072
-0.072
-0.06
-0.046
-0.029
-0.012
0.004
0.02
0.032
0.041
0.047
0.051
0.051
0.049
0.031
0.024
0.013
-0.001
-0.017
-0.017
-0.034
-0.049
-0.061
-0.07
-0.076
-0.079
-0.08
-0.081
-0.082
-0.082
-0.081
-0.08
-0.08
-0.079
-0.077
-0.077
-0.076
-0.075
-0.075
-0.075
-0.075
-0.074
-0.078
-0.087
-0.089
-0.07
-0.026
0.047
0.147
0.258
0.368
0.482
0.599
0.707
0.783
0.811
0.792
0.72
0.605
0.475
0.346
0.211
0.071
-0.052
-0.139
-0.193
-0.213
-0.2
-0.171
-0.149
-0.134
-0.126
-0.125
-0.124
-0.122
-0.121
-0.12
-0.118
-0.115
-0.114
-0.113
-0.112
-0.111
-0.111
-0.11
-0.107
-0.101
-0.092
-0.079
-0.063
-0.035
-0.017
0.002
0.02
0.037
0.045
0.065
0.085
0.105
0.124
0.14
0.153
0.164
0.17
0.175
0.178
0.181
0.184
0.186
0.185
0.183
0.18
0.174
0.168
0.162
0.156
0.147
0.136
0.122
0.107
0.089
0.068
0.045
0.025
0.006
-0.012
-0.029
-0.046
-0.073
-0.09
-0.106
-0.12
-0.131
-0.127
-0.13
-0.13
-0.128
-0.126
-0.124
-0.123
-0.122
-0.121
-0.116
-0.115
-0.114
-0.113
-0.112
-0.115
-0.113
-0.112
-0.11
-0.109
-0.109
-0.109
-0.117
-0.116
-0.115
-0.112
-0.11
-0.099
-0.097
-0.095
-0.095
-0.094
-0.093
-0.093
-0.092
-0.09
-0.089
-0.087
-0.086
-0.085
-0.084
-0.084
-0.084
-0.084
-0.083
-0.083
-0.081
-0.079
-0.076
-0.074
-0.073
-0.071
-0.071
-0.071
-0.071
-0.071
-0.066
-0.058
-0.047
-0.032
-0.013
0.004
0.019
0.033
0.046
0.056
0.062
0.066
0.066
0.064
0.06
0.053
0.041
0.029
0.014
-0.003
-0.022
-0.036
-0.048
-0.058
-0.064
-0.066
-0.066
-0.067
-0.067
-0.068
-0.067
-0.066
-0.065
-0.064
-0.064
-0.063
-0.063
-0.063
-0.062
-0.062
-0.061
-0.06
-0.063
-0.072
-0.074
-0.054
-0.013
0.054
0.153
0.271
0.389
0.499
0.607
0.712
0.792
0.823
0.804
0.736
0.621
0.48
0.286
0.155
0.027
-0.09
-0.182
-0.18
-0.201
-0.188
-0.161
-0.139
-0.124
-0.117
-0.116
-0.115
-0.113
-0.113
-0.112
-0.11
-0.109
-0.107
-0.106
-0.104
-0.103
-0.102
-0.101
-0.099
-0.093
-0.083
-0.07
-0.052
-0.03
-0.013
0.003
0.019
0.037
0.052
0.07
0.089
0.108
0.128
0.145
0.158
0.167
0.174
0.179
0.183
0.185
0.187
0.188
0.188
0.185
0.182
0.177
0.171
0.164
0.156
0.148
0.137
0.122
0.105
0.085
0.064
0.045
0.027
0.008
-0.011
-0.027
-0.044
-0.061
-0.079
-0.097
-0.111
-0.121
-0.127
-0.13
-0.129
-0.128
-0.127
-0.125
-0.124
-0.122
-0.121
-0.12
-0.119
-0.118
-0.116
-0.115
-0.115
-0.114
-0.114
-0.113
-0.112
-0.111
-0.109
-0.101
-0.099
-0.099
-0.097
-0.096
-0.103
-0.102
-0.102
-0.101
-0.101
-0.1
-0.099
-0.097
-0.096
-0.094
-0.092
-0.092
-0.092
-0.091
-0.091
-0.091
-0.09
-0.089
-0.088
-0.088
-0.087
-0.085
-0.085
-0.085
-0.084
-0.076
-0.076
-0.076
-0.074
-0.069
-0.067
-0.054
-0.039
-0.022
-0.006
0.011
0.025
0.036
0.044
0.051
0.054
0.054
0.052
0.048
0.04
0.028
0.015
0.001
-0.015
-0.032
-0.048
-0.062
-0.071
-0.078
-0.081
-0.081
-0.082
-0.084
-0.084
-0.083
-0.083
-0.082
-0.08
-0.078
-0.077
-0.076
-0.076
-0.076
-0.077
-0.077
-0.076
-0.079
-0.089
-0.089
-0.069
-0.024
0.049
0.148
0.258
0.368
0.483
0.6
0.706
0.78
0.806
0.783
0.708
0.592
0.462
0.285
0.149
0.01
-0.109
-0.187
-0.189
-0.208
-0.193
-0.165
-0.15
-0.136
-0.129
-0.127
-0.126
-0.125
-0.124
-0.123
-0.122
-0.12
-0.119
-0.118
-0.117
-0.116
-0.115
-0.115
-0.112
-0.105
-0.094
-0.082
-0.065
-0.034
-0.015
0.003
0.021
0.041
0.044
0.063
0.083
0.103
0.118
0.135
0.149
0.16
0.167
0.172
0.175
0.177
0.179
0.18
0.179
0.176
0.172
0.168
0.162
0.156
0.15
0.141
0.129
0.114
0.097
0.079
0.057
0.035
0.016
-0.002
-0.019
-0.037
-0.055
-0.073
-0.091
-0.108
-0.121
-0.132
-0.138
-0.139
-0.137
-0.136
-0.134
-0.133
-0.133
-0.131
-0.13
-0.129
-0.128
-0.127
-0.126
-0.125
-0.124
-0.124
-0.123
-0.121
-0.12
-0.119
-0.117
-0.116
-0.115
-0.114
-0.112
-0.11
-0.109
-0.108
-0.107
-0.106
-0.106
-0.106
-0.105
-0.104
-0.103
-0.101
-0.1
-0.099
-0.098
-0.097
-0.096
-0.096
-0.096
-0.096
-0.095
-0.094
-0.094
-0.092
-0.09
-0.089
-0.087
-0.094
-0.092
-0.091
-0.088
-0.083
-0.066
-0.055
-0.04
-0.022
-0.005
0.012
0.026
0.038
0.048
0.054
0.057
0.057
0.054
0.049
0.042
0.031
0.019
0.005
-0.013
-0.03
-0.045
-0.056
-0.065
-0.071
-0.074
-0.084
-0.085
-0.086
-0.086
-0.085
-0.075
-0.074
-0.072
-0.07
-0.069
-0.068
-0.068
-0.068
-0.068
-0.068
-0.067
-0.07
-0.079
-0.08
-0.058
-0.015
0.054
0.156
0.276
0.392
0.502
0.609
0.714
0.792
0.819
0.796
0.725
0.607
0.465
0.329
0.199
0.071
-0.047
-0.137
-0.191
-0.208
-0.194
-0.167
-0.145
-0.13
-0.123
-0.121
-0.12
-0.119
-0.117
-0.117
-0.115
-0.113
-0.112
-0.111
-0.109
-0.108
-0.107
-0.106
-0.103
-0.096
-0.087
-0.073
-0.055
-0.034
-0.017
0
0.017
0.035
0.051
0.069
0.088
0.107
0.128
0.147
0.16
0.17
0.176
0.181
0.184
0.187
0.189
0.191
0.192
0.189
0.186
0.181
0.174
0.167
0.16
0.151
0.141
0.126
0.108
0.076
0.055
0.034
0.015
-0.005
-0.011
-0.027
-0.044
-0.061
-0.079
-0.096
-0.11
-0.119
-0.125
-0.127
-0.126
-0.125
-0.124
-0.123
-0.121
-0.119
-0.116
-0.113
-0.111
-0.11
-0.108
-0.107
-0.107
-0.107
-0.106
-0.106
-0.105
-0.104
-0.103
-0.102
-0.102
-0.102
-0.1
-0.099
-0.098
-0.097
-0.096
-0.095
-0.093
-0.092
-0.091
-0.09
-0.089
-0.089
-0.089
-0.088
-0.088
-0.086
-0.085
-0.084
-0.083
-0.082
-0.081
-0.08
-0.079
-0.077
-0.076
-0.076
-0.075
-0.068
-0.068
-0.068
-0.066
-0.061
-0.057
-0.045
-0.029
-0.013
0.004
0.021
0.034
0.045
0.053
0.058
0.061
0.061
0.059
0.055
0.047
0.036
0.023
0.008
-0.008
-0.025
-0.041
-0.054
-0.063
-0.07
-0.073
-0.068
-0.068
-0.068
-0.067
-0.065
-0.069
-0.068
-0.067
-0.066
-0.065
-0.064
-0.063
-0.063
-0.063
-0.063
-0.063
-0.067
-0.077
-0.077
-0.054
-0.006
0.069
0.169
0.279
0.389
0.505
0.622
0.726
0.797
0.821
0.794
0.716
0.599
0.468
0.336
0.197
0.059
-0.058
-0.14
-0.19
-0.207
-0.192
-0.165
-0.145
-0.131
-0.125
-0.123
-0.121
-0.119
-0.118
-0.118
-0.117
-0.116
-0.115
-0.115
-0.114
-0.113
-0.113
-0.112
-0.109
-0.101
-0.09
-0.077
-0.06
-0.028
-0.01
0.008
0.026
0.041
0.043
0.062
0.083
0.098
0.115
0.13
0.144
0.153
0.164
0.17
0.174
0.176
0.178
0.179
0.179
0.176
0.172
0.167
0.161
0.154
0.147
0.138
0.125
0.111
0.095
0.077
0.056
0.034
0.015
-0.004
-0.022
-0.04
-0.057
-0.074
-0.091
-0.107
-0.121
-0.131
-0.137
-0.138
-0.136
-0.136
-0.136
-0.135
-0.135
-0.135
-0.133
-0.131
-0.13
-0.128
-0.126
-0.123
-0.121
-0.12
-0.119
-0.118
-0.117
-0.117
-0.117
-0.115
-0.115
-0.114
-0.113
-0.111
-0.11
-0.109
-0.108
-0.106
-0.106
-0.106
-0.105
-0.104
-0.103
-0.101
-0.1
-0.1
-0.099
-0.098
-0.098
-0.097
-0.097
-0.096
-0.095
-0.094
-0.092
-0.09
-0.088
-0.087
-0.085
-0.084
-0.084
-0.083
-0.08
-0.075
-0.067
-0.055
-0.04
-0.023
-0.006
0.008
0.021
0.033
0.042
0.048
0.051
0.051
0.049
0.044
0.035
0.025
0.012
-0.003
-0.02
-0.037
-0.051
-0.063
-0.073
-0.08
-0.083
-0.091
-0.09
-0.09
-0.09
-0.089
-0.081
-0.081
-0.081
-0.081
-0.08
-0.079
-0.078
-0.077
-0.076
-0.076
-0.076
-0.08
-0.09
-0.089
-0.066
-0.021
0.051
0.156
0.276
0.39
0.498
0.606
0.713
0.788
0.812
0.787
0.713
0.59
0.449
0.314
0.185
0.056
-0.062
-0.15
-0.201
-0.216
-0.2
-0.172
-0.151
-0.137
-0.131
-0.13
-0.128
-0.126
-0.124
-0.123
-0.121
-0.119
-0.119
-0.118
-0.117
-0.115
-0.114
-0.113
-0.11
-0.103
-0.094
-0.081
-0.063
-0.043
-0.026
-0.009
0.009
0.035
0.054
0.072
0.091
0.111
0.122
0.138
0.151
0.16
0.168
0.174
0.177
0.178
0.179
0.178
0.176
0.173
0.17
0.166
0.161
0.154
0.147
0.137
0.125
0.111
0.094
0.06
0.04
0.02
-0
-0.02
-0.022
-0.038
-0.054
-0.071
-0.088
-0.105
-0.117
-0.125
-0.131
-0.132
-0.131
-0.129
-0.128
-0.127
-0.126
-0.125
-0.124
-0.123
-0.122
-0.121
-0.12
-0.118
-0.117
-0.115
-0.113
-0.112
-0.111
-0.111
-0.111
-0.109
-0.109
-0.108
-0.107
-0.105
-0.103
-0.102
-0.101
-0.099
-0.099
-0.098
-0.097
-0.096
-0.095
-0.094
-0.093
-0.093
-0.092
-0.091
-0.09
-0.088
-0.087
-0.085
-0.084
-0.083
-0.082
-0.082
-0.081
-0.08
-0.079
-0.075
-0.074
-0.073
-0.071
-0.064
-0.058
-0.045
-0.03
-0.013
0.004
0.021
0.036
0.047
0.055
0.061
0.063
0.063
0.061
0.056
0.048
0.035
0.023
0.009
-0.006
-0.023
-0.039
-0.052
-0.062
-0.069
-0.071
-0.068
-0.069
-0.068
-0.067
-0.065
-0.069
-0.068
-0.068
-0.068
-0.067
-0.066
-0.065
-0.064
-0.063
-0.061
-0.061
-0.064
-0.074
-0.072
-0.049
-0
0.075
0.176
0.287
0.401
0.518
0.633
0.734
0.801
0.821
0.792
0.712
0.594
0.464
0.33
0.19
0.053
-0.06
-0.14
-0.188
-0.204
-0.186
-0.159
-0.139
-0.126
-0.12
-0.119
-0.118
-0.118
-0.117
-0.116
-0.115
-0.114
-0.114
-0.112
-0.111
-0.109
-0.107
-0.105
-0.102
-0.094
-0.084
-0.07
-0.053
-0.019
-0.001
0.016
0.033
0.049
0.051
0.072
0.093
0.111
0.129
0.145
0.158
0.169
0.175
0.18
0.184
0.187
0.188
0.189
0.189
0.187
0.183
0.179
0.173
0.166
0.159
0.15
0.138
0.124
0.108
0.09
0.067
0.045
0.025
0.006
-0.014
-0.032
-0.049
-0.065
-0.081
-0.098
-0.113
-0.123
-0.13
-0.132
-0.131
-0.129
-0.128
-0.127
-0.126
-0.125
-0.124
-0.121
-0.119
-0.118
-0.118
-0.117
-0.116
-0.114
-0.112
-0.11
-0.108
-0.107
-0.106
-0.104
-0.102
-0.102
-0.101
-0.101
-0.101
-0.102
-0.101
-0.099
-0.098
-0.096
-0.094
-0.093
-0.092
-0.09
-0.09
-0.09
-0.089
-0.088
-0.087
-0.086
-0.084
-0.083
-0.082
-0.082
-0.081
-0.081
-0.08
-0.08
-0.079
-0.079
-0.079
-0.079
-0.076
-0.07
-0.061
-0.049
-0.032
-0.014
0.002
0.017
0.031
0.043
0.052
0.057
0.059
0.058
0.056
0.05
0.042
0.032
0.019
0.004
-0.014
-0.03
-0.044
-0.056
-0.065
-0.072
-0.076
-0.081
-0.082
-0.082
-0.081
-0.079
-0.074
-0.073
-0.073
-0.073
-0.073
-0.072
-0.071
-0.07
-0.067
-0.066
-0.067
-0.073
-0.084
-0.084
-0.061
-0.016
0.059
0.167
0.287
0.4
0.508
0.617
0.724
0.795
0.815
0.787
0.708
0.581
0.441
0.307
0.179
0.049
-0.069
-0.156
-0.204
-0.217
-0.199
-0.172
-0.151
-0.138
-0.133
-0.131
-0.13
-0.128
-0.126
-0.125
-0.123
-0.121
-0.119
-0.118
-0.117
-0.116
-0.116
-0.114
-0.112
-0.105
-0.095
-0.081
-0.063
-0.044
-0.027
-0.01
0.008
0.026
0.044
0.061
0.08
0.101
0.12
0.135
0.148
0.157
0.163
0.167
0.171
0.173
0.175
0.177
0.177
0.174
0.171
0.166
0.16
0.154
0.147
0.139
0.128
0.112
0.094
0.059
0.037
0.016
-0.004
-0.025
-0.026
-0.042
-0.058
-0.075
-0.093
-0.11
-0.123
-0.132
-0.138
-0.14
-0.139
-0.138
-0.136
-0.134
-0.133
-0.131
-0.13
-0.124
-0.122
-0.121
-0.121
-0.12
-0.123
-0.123
-0.122
-0.121
-0.121
-0.12
-0.118
-0.117
-0.116
-0.115
-0.114
-0.105
-0.104
-0.103
-0.102
-0.1
-0.106
-0.104
-0.102
-0.101
-0.101
-0.101
-0.101
-0.101
-0.101
-0.1
-0.098
-0.097
-0.096
-0.094
-0.093
-0.092
-0.092
-0.09
-0.09
-0.09
-0.089
-0.089
-0.088
-0.087
-0.085
-0.079
-0.068
-0.056
-0.04
-0.024
-0.007
0.009
0.023
0.033
0.042
0.048
0.051
0.051
0.05
0.046
0.037
0.025
0.012
-0.003
-0.019
-0.036
-0.051
-0.063
-0.072
-0.078
-0.08
-0.078
-0.079
-0.08
-0.079
-0.078
-0.079
-0.078
-0.076
-0.075
-0.074
-0.073
-0.073
-0.073
-0.074
-0.074
-0.073
-0.077
-0.086
-0.083
-0.057
-0.006
0.07
0.171
0.281
0.396
0.514
0.627
0.728
0.793
0.811
0.72
0.638
0.519
0.388
0.253
0.173
0.04
-0.07
-0.148
-0.195
-0.209
-0.191
-0.164
-0.144
-0.131
-0.124
-0.122
-0.122
-0.12
-0.119
-0.117
-0.115
-0.114
-0.113
-0.112
-0.112
-0.11
-0.108
-0.107
-0.104
-0.097
-0.088
-0.074
-0.057
-0.037
-0.019
-0.002
0.013
0.029
0.047
0.067
0.086
0.106
0.124
0.14
0.154
0.165
0.171
0.176
0.179
0.182
0.184
0.185
0.185
0.182
0.178
0.174
0.168
0.162
0.155
0.146
0.133
0.119
0.101
0.083
0.06
0.04
0.021
0.003
-0.017
-0.034
-0.051
-0.069
-0.085
-0.101
-0.115
-0.124
-0.129
-0.13
-0.129
-0.127
-0.125
-0.124
-0.124
-0.123
-0.122
-0.12
-0.12
-0.118
-0.117
-0.115
-0.114
-0.113
-0.111
-0.101
-0.1
-0.099
-0.097
-0.095
-0.103
-0.103
-0.101
-0.1
-0.099
-0.097
-0.096
-0.095
-0.095
-0.094
-0.094
-0.092
-0.092
-0.09
-0.089
-0.088
-0.087
-0.086
-0.085
-0.084
-0.082
-0.081
-0.08
-0.079
-0.079
-0.078
-0.076
-0.075
-0.075
-0.073
-0.073
-0.073
-0.071
-0.066
-0.057
-0.043
-0.026
-0.008
0.01
0.026
0.039
0.051
0.06
0.064
0.065
0.065
0.062
0.056
0.047
0.037
0.024
0.01
-0.007
-0.023
-0.038
-0.049
-0.059
-0.065
-0.066
-0.067
-0.067
-0.067
-0.066
-0.065
-0.063
-0.063
-0.062
-0.063
-0.063
-0.062
-0.061
-0.06
-0.059
-0.058
-0.058
-0.063
-0.073
-0.07
-0.045
0.002
0.079
0.188
0.306
0.417
0.524
0.634
0.742
0.81
0.826
0.749
0.667
0.536
0.397
0.266
0.184
0.053
-0.065
-0.149
-0.194
-0.205
-0.186
-0.157
-0.135
-0.122
-0.117
-0.116
-0.115
-0.113
-0.112
-0.111
-0.11
-0.108
-0.107
-0.107
-0.105
-0.104
-0.103
-0.102
-0.099
-0.092
-0.082
-0.067
-0.048
-0.029
-0.012
0.005
0.022
0.039
0.056
0.074
0.094
0.113
0.132
0.147
0.159
0.168
0.175
0.18
0.183
0.185
0.186
0.186
0.186
0.183
0.179
0.175
0.168
0.16
0.153
0.145
0.133
0.117
0.099
0.08
0.059
0.038
0.018
-0.002
-0.02
-0.036
-0.053
-0.071
-0.089
-0.106
-0.119
-0.128
-0.134
-0.134
-0.133
-0.131
-0.129
-0.128
-0.127
-0.126
-0.125
-0.123
-0.122
-0.121
-0.12
-0.118
-0.117
-0.116
-0.115
-0.123
-0.122
-0.122
-0.12
-0.119
-0.11
-0.11
-0.108
-0.108
-0.107
-0.106
-0.105
-0.104
-0.103
-0.102
-0.1
-0.099
-0.098
-0.096
-0.095
-0.095
-0.094
-0.093
-0.093
-0.092
-0.09
-0.089
-0.088
-0.087
-0.088
-0.087
-0.087
-0.087
-0.087
-0.086
-0.086
-0.085
-0.082
-0.075
-0.064
-0.051
-0.035
-0.019
-0.001
0.015
0.029
0.039
0.047
0.052
0.055
0.054
0.052
0.048
0.039
0.026
0.012
-0.002
-0.019
-0.036
-0.052
-0.064
-0.073
-0.079
-0.081
-0.082
-0.082
-0.083
-0.081
-0.08
-0.078
-0.078
-0.076
-0.076
-0.077
-0.076
-0.076
-0.075
-0.074
-0.072
-0.071
-0.076
-0.086
-0.082
-0.056
-0.006
0.071
0.173
0.285
0.402
0.52
0.63
0.729
0.791
0.805
0.709
0.627
0.506
0.375
0.238
0.161
0.03
-0.077
-0.153
-0.198
-0.209
-0.189
-0.163
-0.145
-0.133
-0.128
-0.126
-0.124
-0.122
-0.121
-0.12
-0.12
-0.118
-0.116
-0.115
-0.114
-0.113
-0.113
-0.113
-0.11
-0.103
-0.092
-0.079
-0.061
-0.041
-0.022
-0.004
0.013
0.029
0.047
0.067
0.085
0.103
0.121
0.137
0.151
0.161
0.167
0.172
0.175
0.177
0.179
0.179
0.178
0.175
0.17
0.166
0.161
0.154
0.147
0.137
0.125
0.11
0.092
0.072
0.049
0.028
0.009
-0.008
-0.026
-0.043
-0.06
-0.091
-0.108
-0.124
-0.138
-0.147
-0.138
-0.139
-0.137
-0.135
-0.134
-0.131
-0.13
-0.129
-0.127
-0.126
-0.126
-0.125
-0.123
-0.122
-0.121
-0.119
-0.118
-0.109
-0.107
-0.106
-0.105
-0.103
-0.111
-0.11
-0.109
-0.109
-0.109
-0.107
-0.107
-0.107
-0.107
-0.106
-0.105
-0.104
-0.101
-0.099
-0.098
-0.097
-0.096
-0.095
-0.094
-0.093
-0.092
-0.09
-0.088
-0.087
-0.086
-0.085
-0.085
-0.086
-0.085
-0.084
-0.082
-0.08
-0.077
-0.07
-0.061
-0.049
-0.033
-0.017
-0.001
0.014
0.027
0.039
0.048
0.054
0.056
0.055
0.053
0.047
0.039
0.027
0.013
-0.003
-0.02
-0.036
-0.049
-0.06
-0.068
-0.074
-0.076
-0.076
-0.076
-0.076
-0.075
-0.073
-0.072
-0.071
-0.07
-0.069
-0.069
-0.068
-0.067
-0.066
-0.065
-0.064
-0.064
-0.07
-0.081
-0.077
-0.052
-0.003
0.077
0.19
0.307
0.416
0.525
0.636
0.742
0.807
0.82
0.744
0.657
0.524
0.386
0.196
0.11
-0.022
-0.137
-0.216
-0.196
-0.204
-0.183
-0.155
-0.135
-0.124
-0.12
-0.119
-0.117
-0.12
-0.117
-0.116
-0.115
-0.113
-0.107
-0.107
-0.105
-0.103
-0.101
-0.1
-0.096
-0.089
-0.078
-0.064
-0.045
-0.026
-0.009
0.009
0.027
0.043
0.061
0.079
0.098
0.119
0.138
0.154
0.167
0.177
0.183
0.188
0.19
0.192
0.193
0.194
0.193
0.19
0.186
0.181
0.174
0.167
0.16
0.151
0.139
0.123
0.105
0.07
0.05
0.03
0.009
-0.011
-0.012
-0.03
-0.047
-0.065
-0.083
-0.098
-0.11
-0.118
-0.123
-0.124
-0.123
-0.122
-0.121
-0.119
-0.118
-0.117
-0.115
-0.114
-0.113
-0.111
-0.11
-0.109
-0.108
-0.107
-0.105
-0.113
-0.112
-0.111
-0.109
-0.108
-0.097
-0.096
-0.094
-0.093
-0.091
-0.091
-0.09
-0.089
-0.088
-0.087
-0.086
-0.085
-0.084
-0.084
-0.082
-0.082
-0.082
-0.081
-0.079
-0.078
-0.076
-0.074
-0.073
-0.072
-0.072
-0.071
-0.07
-0.069
-0.069
-0.068
-0.068
-0.069
-0.066
-0.059
-0.05
-0.038
-0.022
-0.005
0.012
0.028
0.041
0.051
0.058
0.064
0.066
0.065
0.063
0.058
0.049
0.037
0.025
0.01
-0.007
-0.025
-0.04
-0.052
-0.06
-0.066
-0.069
-0.071
-0.072
-0.072
-0.07
-0.069
-0.066
-0.065
-0.064
-0.064
-0.064
-0.063
-0.062
-0.061
-0.06
-0.06
-0.06
-0.066
-0.075
-0.071
-0.042
0.01
0.087
0.189
0.302
0.42
0.536
0.646
0.743
0.803
0.815
0.716
0.631
0.509
0.376
0.235
0.161
0.031
-0.074
-0.149
-0.192
-0.2
-0.179
-0.153
-0.134
-0.122
-0.117
-0.117
-0.116
-0.115
-0.114
-0.113
-0.113
-0.112
-0.111
-0.11
-0.109
-0.108
-0.107
-0.106
-0.102
-0.094
-0.084
-0.07
-0.053
-0.033
-0.015
0.003
0.02
0.038
0.057
0.077
0.096
0.114
0.132
0.148
0.161
0.17
0.175
0.18
0.182
0.183
0.185
0.185
0.184
0.18
0.176
0.171
0.165
0.159
0.151
0.142
0.131
0.116
0.1
0.079
0.056
0.035
0.017
-0.002
-0.02
-0.037
-0.054
-0.072
-0.09
-0.107
-0.121
-0.13
-0.136
-0.136
-0.134
-0.133
-0.131
-0.129
-0.128
-0.128
-0.127
-0.134
-0.133
-0.132
-0.131
-0.13
-0.121
-0.121
-0.12
-0.112
-0.111
-0.11
-0.108
-0.108
-0.113
-0.112
-0.11
-0.109
-0.108
-0.108
-0.107
-0.107
-0.107
-0.105
-0.104
-0.103
-0.102
-0.107
-0.106
-0.105
-0.104
-0.103
-0.097
-0.096
-0.096
-0.095
-0.094
-0.093
-0.092
-0.09
-0.089
-0.089
-0.088
-0.087
-0.087
-0.087
-0.084
-0.077
-0.067
-0.053
-0.035
-0.017
-0.001
0.013
0.026
0.036
0.044
0.048
0.05
0.048
0.045
0.039
0.03
0.019
0.005
-0.01
-0.026
-0.042
-0.055
-0.065
-0.074
-0.079
-0.081
-0.081
-0.082
-0.082
-0.081
-0.08
-0.08
-0.079
-0.078
-0.077
-0.076
-0.075
-0.074
-0.074
-0.073
-0.073
-0.073
-0.081
-0.09
-0.081
-0.051
0.004
0.091
0.207
0.322
0.43
0.539
0.653
0.753
0.805
0.808
0.723
0.624
0.486
0.352
0.166
0.077
-0.055
-0.164
-0.235
-0.21
-0.211
-0.184
-0.156
-0.137
-0.126
-0.123
-0.122
-0.122
-0.128
-0.127
-0.126
-0.126
-0.125
-0.118
-0.118
-0.117
-0.115
-0.113
-0.111
-0.106
-0.098
-0.086
-0.07
-0.052
-0.034
-0.017
0.001
0.019
0.037
0.055
0.073
0.092
0.113
0.131
0.145
0.157
0.166
0.172
0.177
0.179
0.181
0.183
0.183
0.181
0.179
0.175
0.171
0.164
0.159
0.152
0.142
0.129
0.112
0.094
0.074
0.052
0.031
0.01
-0.009
-0.025
-0.04
-0.057
-0.076
-0.094
-0.109
-0.12
-0.128
-0.132
-0.132
-0.132
-0.131
-0.13
-0.128
-0.127
-0.125
-0.124
-0.122
-0.12
-0.118
-0.117
-0.115
-0.114
-0.114
-0.113
-0.12
-0.119
-0.118
-0.116
-0.115
-0.105
-0.104
-0.103
-0.103
-0.102
-0.101
-0.1
-0.099
-0.097
-0.095
-0.095
-0.094
-0.093
-0.091
-0.09
-0.089
-0.088
-0.086
-0.085
-0.085
-0.084
-0.082
-0.082
-0.082
-0.081
-0.089
-0.088
-0.087
-0.085
-0.088
-0.078
-0.078
-0.074
-0.068
-0.053
-0.041
-0.025
-0.008
0.008
0.024
0.038
0.048
0.056
0.062
0.064
0.063
0.06
0.057
0.048
0.035
0.022
0.008
-0.011
-0.028
-0.042
-0.052
-0.06
-0.065
-0.068
-0.069
-0.071
-0.072
-0.071
-0.069
-0.067
-0.066
-0.065
-0.064
-0.064
-0.064
-0.063
-0.062
-0.061
-0.059
-0.059
-0.065
-0.075
-0.068
-0.038
0.017
0.096
0.201
0.316
0.435
0.55
0.658
0.754
0.812
0.821
0.72
0.633
0.509
0.374
0.234
0.161
0.035
-0.07
-0.145
-0.188
-0.196
-0.176
-0.151
-0.132
-0.12
-0.116
-0.114
-0.113
-0.112
-0.111
-0.109
-0.107
-0.105
-0.105
-0.104
-0.104
-0.102
-0.101
-0.099
-0.095
-0.088
-0.079
-0.065
-0.048
-0.028
-0.01
0.007
0.024
0.042
0.062
0.082
0.101
0.12
0.138
0.154
0.166
0.175
0.181
0.185
0.188
0.19
0.191
0.192
0.191
0.188
0.184
0.18
0.174
0.167
0.16
0.151
0.139
0.125
0.107
0.085
0.063
0.042
0.022
0.003
-0.015
-0.033
-0.05
-0.067
-0.084
-0.102
-0.115
-0.124
-0.129
-0.129
-0.128
-0.126
-0.125
-0.122
-0.121
-0.119
-0.117
-0.115
-0.115
-0.114
-0.113
-0.112
-0.111
-0.11
-0.109
-0.108
-0.108
-0.107
-0.105
-0.103
-0.102
-0.101
-0.099
-0.098
-0.098
-0.098
-0.097
-0.096
-0.095
-0.093
-0.092
-0.091
-0.09
-0.089
-0.088
-0.087
-0.086
-0.085
-0.085
-0.084
-0.083
-0.082
-0.081
-0.081
-0.08
-0.079
-0.078
-0.078
-0.078
-0.077
-0.077
-0.076
-0.072
-0.065
-0.055
-0.042
-0.025
-0.009
0.007
0.023
0.037
0.048
0.057
0.061
0.062
0.061
0.057
0.051
0.041
0.029
0.015
-0
-0.017
-0.033
-0.046
-0.058
-0.068
-0.072
-0.074
-0.074
-0.075
-0.076
-0.076
-0.075
-0.075
-0.074
-0.073
-0.072
-0.072
-0.071
-0.07
-0.068
-0.067
-0.066
-0.067
-0.074
-0.084
-0.077
-0.049
0.004
0.09
0.203
0.315
0.424
0.534
0.648
0.75
0.806
0.813
0.772
0.677
0.544
0.41
0.282
0.151
0.015
-0.098
-0.17
-0.209
-0.213
-0.189
-0.162
-0.144
-0.133
-0.129
-0.128
-0.126
-0.125
-0.124
-0.122
-0.121
-0.12
-0.119
-0.119
-0.118
-0.117
-0.117
-0.115
-0.112
-0.09
-0.078
-0.063
-0.045
-0.028
-0.025
-0.007
0.012
0.03
0.048
0.067
0.088
0.108
0.124
0.138
0.149
0.157
0.163
0.16
0.163
0.166
0.168
0.168
0.174
0.171
0.167
0.161
0.155
0.15
0.143
0.133
0.121
0.105
0.088
0.07
0.049
0.027
0.007
-0.013
-0.03
-0.047
-0.064
-0.082
-0.099
-0.113
-0.125
-0.134
-0.14
-0.141
-0.14
-0.14
-0.138
-0.136
-0.135
-0.133
-0.132
-0.13
-0.129
-0.128
-0.127
-0.125
-0.124
-0.124
-0.123
-0.128
-0.127
-0.126
-0.124
-0.123
-0.114
-0.113
-0.112
-0.113
-0.112
-0.111
-0.11
-0.108
-0.106
-0.105
-0.104
-0.104
-0.104
-0.102
-0.101
-0.1
-0.099
-0.098
-0.097
-0.097
-0.096
-0.095
-0.094
-0.093
-0.092
-0.098
-0.097
-0.096
-0.095
-0.093
-0.084
-0.084
-0.081
-0.075
-0.067
-0.054
-0.038
-0.019
-0.002
0.013
0.026
0.036
0.044
0.049
0.051
0.049
0.047
0.041
0.032
0.02
0.007
-0.008
-0.025
-0.043
-0.056
-0.066
-0.074
-0.079
-0.081
-0.08
-0.08
-0.079
-0.077
-0.075
-0.075
-0.075
-0.074
-0.074
-0.073
-0.071
-0.07
-0.07
-0.069
-0.069
-0.069
-0.075
-0.083
-0.074
-0.041
0.013
0.094
0.199
0.315
0.433
0.546
0.653
0.747
0.802
0.808
0.766
0.676
0.55
0.412
0.271
0.136
0.01
-0.092
-0.164
-0.204
-0.209
-0.186
-0.16
-0.141
-0.13
-0.126
-0.125
-0.124
-0.123
-0.122
-0.121
-0.121
-0.12
-0.119
-0.118
-0.116
-0.114
-0.112
-0.11
-0.105
-0.095
-0.085
-0.071
-0.052
-0.033
-0.017
-0
0.016
0.034
0.055
0.075
0.094
0.114
0.131
0.146
0.158
0.166
0.172
0.176
0.179
0.182
0.184
0.185
0.183
0.181
0.177
0.171
0.166
0.16
0.152
0.142
0.131
0.116
0.098
0.076
0.054
0.034
0.015
-0.004
-0.022
-0.039
-0.055
-0.071
-0.089
-0.105
-0.117
-0.126
-0.131
-0.132
-0.13
-0.129
-0.126
-0.123
-0.122
-0.122
-0.12
-0.119
-0.118
-0.116
-0.115
-0.113
-0.112
-0.111
-0.11
-0.106
-0.104
-0.104
-0.102
-0.099
-0.102
-0.102
-0.1
-0.099
-0.099
-0.097
-0.094
-0.093
-0.091
-0.09
-0.089
-0.09
-0.089
-0.088
-0.088
-0.087
-0.086
-0.085
-0.084
-0.082
-0.08
-0.079
-0.079
-0.079
-0.08
-0.076
-0.076
-0.076
-0.074
-0.073
-0.076
-0.075
-0.072
-0.066
-0.055
-0.041
-0.024
-0.006
0.01
0.024
0.037
0.048
0.056
0.06
0.062
0.061
0.058
0.052
0.044
0.032
0.018
0.003
-0.013
-0.029
-0.043
-0.053
-0.062
-0.067
-0.068
-0.069
-0.07
-0.07
-0.07
-0.069
-0.068
-0.067
-0.066
-0.065
-0.065
-0.064
-0.064
-0.063
-0.062
-0.061
-0.061
-0.066
-0.075
-0.066
-0.036
0.018
0.107
0.22
0.331
0.441
0.552
0.668
0.767
0.82
0.823
0.739
0.639
0.504
0.372
0.243
0.15
0.015
-0.093
-0.159
-0.195
-0.197
-0.171
-0.144
-0.131
-0.12
-0.116
-0.116
-0.115
-0.114
-0.113
-0.112
-0.11
-0.109
-0.107
-0.106
-0.104
-0.102
-0.101
-0.099
-0.095
-0.087
-0.076
-0.061
-0.044
-0.026
-0.008
0.01
0.027
0.044
0.062
0.08
0.1
0.12
0.137
0.151
0.163
0.172
0.179
0.183
0.185
0.187
0.188
0.188
0.186
0.183
0.179
0.174
0.167
0.161
0.154
0.145
0.131
0.116
0.098
0.078
0.058
0.036
0.016
-0.002
-0.02
-0.037
-0.055
-0.074
-0.092
-0.108
-0.12
-0.128
-0.133
-0.133
-0.132
-0.131
-0.13
-0.128
-0.127
-0.126
-0.124
-0.123
-0.123
-0.123
-0.123
-0.121
-0.12
-0.119
-0.117
-0.12
-0.12
-0.119
-0.118
-0.117
-0.111
-0.11
-0.108
-0.108
-0.106
-0.104
-0.102
-0.101
-0.1
-0.099
-0.099
-0.099
-0.098
-0.097
-0.097
-0.096
-0.095
-0.093
-0.092
-0.091
-0.09
-0.089
-0.088
-0.088
-0.088
-0.092
-0.091
-0.091
-0.089
-0.089
-0.083
-0.082
-0.079
-0.072
-0.062
-0.049
-0.033
-0.015
0.002
0.016
0.028
0.039
0.046
0.051
0.053
0.052
0.048
0.041
0.031
0.019
0.006
-0.009
-0.026
-0.043
-0.056
-0.066
-0.074
-0.079
-0.08
-0.08
-0.081
-0.08
-0.078
-0.077
-0.077
-0.076
-0.076
-0.076
-0.076
-0.076
-0.075
-0.075
-0.074
-0.073
-0.074
-0.081
-0.09
-0.08
-0.047
0.009
0.092
0.2
0.318
0.437
0.548
0.655
0.747
0.798
0.801
0.695
0.602
0.475
0.337
0.198
0.128
0.003
-0.098
-0.17
-0.207
-0.208
-0.184
-0.16
-0.142
-0.131
-0.128
-0.129
-0.127
-0.126
-0.124
-0.123
-0.122
-0.121
-0.119
-0.118
-0.116
-0.114
-0.112
-0.111
-0.107
-0.1
-0.089
-0.076
-0.058
-0.039
-0.022
-0.006
0.01
0.028
0.049
0.069
0.088
0.107
0.125
0.141
0.152
0.161
0.167
0.172
0.175
0.178
0.179
0.18
0.178
0.175
0.171
0.166
0.16
0.154
0.148
0.139
0.127
0.111
0.091
0.068
0.045
0.024
0.005
-0.013
-0.031
-0.048
-0.064
-0.08
-0.098
-0.115
-0.127
-0.135
-0.139
-0.138
-0.136
-0.134
-0.133
-0.132
-0.131
-0.131
-0.13
-0.128
-0.127
-0.125
-0.124
-0.123
-0.122
-0.12
-0.119
-0.117
-0.116
-0.115
-0.113
-0.111
-0.111
-0.11
-0.109
-0.108
-0.107
-0.106
-0.105
-0.104
-0.103
-0.102
-0.101
-0.101
-0.1
-0.1
-0.099
-0.098
-0.097
-0.096
-0.095
-0.094
-0.094
-0.092
-0.091
-0.091
-0.09
-0.086
-0.085
-0.084
-0.083
-0.082
-0.083
-0.083
-0.079
-0.071
-0.06
-0.044
-0.027
-0.01
0.005
0.02
0.033
0.043
0.05
0.055
0.056
0.055
0.052
0.046
0.037
0.025
0.01
-0.006
-0.022
-0.037
-0.051
-0.061
-0.068
-0.072
-0.074
-0.074
-0.076
-0.076
-0.075
-0.074
-0.073
-0.072
-0.071
-0.071
-0.071
-0.071
-0.07
-0.069
-0.067
-0.066
-0.067
-0.074
-0.081
-0.067
-0.032
0.03
0.125
0.24
0.35
0.459
0.571
0.687
0.778
0.82
0.815
0.759
0.649
0.515
0.384
0.255
0.121
-0.012
-0.113
-0.175
-0.204
-0.199
-0.171
-0.146
-0.13
-0.121
-0.119
-0.119
-0.118
-0.117
-0.116
-0.115
-0.114
-0.113
-0.111
-0.11
-0.108
-0.105
-0.103
-0.102
-0.098
-0.074
-0.062
-0.047
-0.029
-0.011
-0.01
0.009
0.027
0.045
0.064
0.084
0.104
0.123
0.138
0.152
0.163
0.172
0.179
0.177
0.179
0.181
0.183
0.184
0.189
0.186
0.182
0.176
0.168
0.161
0.152
0.142
0.128
0.112
0.094
0.075
0.054
0.033
0.013
-0.004
-0.021
-0.038
-0.056
-0.073
-0.09
-0.104
-0.115
-0.122
-0.126
-0.126
-0.126
-0.125
-0.124
-0.122
-0.12
-0.119
-0.118
-0.117
-0.115
-0.114
-0.114
-0.112
-0.11
-0.109
-0.108
-0.106
-0.105
-0.105
-0.104
-0.102
-0.1
-0.099
-0.097
-0.096
-0.096
-0.096
-0.095
-0.095
-0.094
-0.092
-0.09
-0.089
-0.088
-0.087
-0.086
-0.085
-0.085
-0.083
-0.082
-0.083
-0.083
-0.082
-0.081
-0.081
-0.08
-0.081
-0.08
-0.079
-0.078
-0.077
-0.075
-0.074
-0.07
-0.062
-0.052
-0.038
-0.021
-0.003
0.014
0.029
0.042
0.052
0.06
0.065
0.066
0.065
0.063
0.058
0.049
0.038
0.025
0.01
-0.009
-0.027
-0.041
-0.052
-0.06
-0.065
-0.067
-0.067
-0.067
-0.068
-0.068
-0.066
-0.066
-0.066
-0.066
-0.066
-0.066
-0.065
-0.064
-0.062
-0.06
-0.059
-0.06
-0.066
-0.074
-0.063
-0.029
0.027
0.111
0.22
0.338
0.455
0.565
0.672
0.764
0.814
0.813
0.764
0.667
0.537
0.396
0.256
0.126
0.002
-0.098
-0.168
-0.203
-0.204
-0.179
-0.155
-0.137
-0.126
-0.123
-0.123
-0.121
-0.119
-0.119
-0.118
-0.118
-0.116
-0.115
-0.114
-0.113
-0.111
-0.111
-0.11
-0.106
-0.099
-0.088
-0.072
-0.052
-0.033
-0.015
0.001
0.017
0.034
0.054
0.073
0.093
0.113
0.131
0.146
0.157
0.164
0.168
0.172
0.173
0.175
0.176
0.177
0.174
0.171
0.166
0.161
0.155
0.148
0.14
0.116
0.104
0.09
0.072
0.05
0.045
0.025
0.005
-0.014
-0.032
-0.048
-0.064
-0.081
-0.1
-0.116
-0.128
-0.135
-0.139
-0.14
-0.139
-0.138
-0.138
-0.136
-0.135
-0.134
-0.132
-0.131
-0.128
-0.126
-0.124
-0.122
-0.12
-0.119
-0.118
-0.116
-0.115
-0.115
-0.114
-0.113
-0.113
-0.113
-0.112
-0.11
-0.11
-0.108
-0.107
-0.105
-0.104
-0.103
-0.101
-0.1
-0.099
-0.097
-0.096
-0.095
-0.094
-0.094
-0.094
-0.094
-0.094
-0.093
-0.093
-0.093
-0.091
-0.09
-0.089
-0.089
-0.088
-0.087
-0.087
-0.086
-0.082
-0.075
-0.064
-0.049
-0.033
-0.017
-0
0.016
0.028
0.039
0.045
0.049
0.05
0.049
0.046
0.04
0.031
0.017
0.004
-0.011
-0.027
-0.043
-0.057
-0.068
-0.077
-0.082
-0.082
-0.081
-0.082
-0.082
-0.081
-0.081
-0.081
-0.081
-0.081
-0.08
-0.079
-0.078
-0.077
-0.077
-0.076
-0.075
-0.075
-0.083
-0.09
-0.078
-0.045
0.015
0.108
0.219
0.329
0.438
0.551
0.638
0.731
0.776
0.774
0.72
0.646
0.514
0.384
0.255
0.119
-0.015
-0.118
-0.182
-0.214
-0.211
-0.185
-0.16
-0.143
-0.134
-0.131
-0.13
-0.129
-0.127
-0.126
-0.124
-0.122
-0.12
-0.119
-0.118
-0.117
-0.116
-0.115
-0.114
-0.11
-0.1
-0.088
-0.072
-0.054
-0.035
-0.017
0.002
0.02
0.037
0.055
0.074
0.094
0.114
0.131
0.145
0.156
0.164
0.169
0.172
0.174
0.176
0.178
0.17
0.169
0.167
0.162
0.155
0.158
0.151
0.143
0.135
0.122
0.107
0.09
0.071
0.048
0.026
0.005
-0.013
-0.03
-0.047
-0.064
-0.082
-0.099
-0.114
-0.126
-0.134
-0.137
-0.138
-0.136
-0.134
-0.132
-0.135
-0.133
-0.132
-0.13
-0.129
-0.123
-0.122
-0.121
-0.119
-0.117
-0.116
-0.115
-0.114
-0.113
-0.112
-0.11
-0.118
-0.117
-0.116
-0.115
-0.114
-0.103
-0.103
-0.101
-0.099
-0.099
-0.098
-0.096
-0.096
-0.096
-0.094
-0.093
-0.092
-0.091
-0.089
-0.089
-0.088
-0.087
-0.085
-0.085
-0.084
-0.084
-0.083
-0.082
-0.081
-0.079
-0.078
-0.078
-0.076
-0.072
-0.064
-0.054
-0.04
-0.023
-0.006
0.01
0.023
0.035
0.045
0.053
0.058
0.06
0.058
0.054
0.047
0.037
0.025
0.011
-0.004
-0.022
-0.037
-0.049
-0.059
-0.065
-0.068
-0.068
-0.069
-0.069
-0.069
-0.069
-0.069
-0.069
-0.069
-0.068
-0.067
-0.066
-0.064
-0.062
-0.061
-0.061
-0.06
-0.062
-0.07
-0.075
-0.058
-0.018
0.043
0.134
0.247
0.366
0.481
0.589
0.693
0.777
0.817
0.807
0.749
0.645
0.512
0.372
0.235
0.105
-0.015
-0.109
-0.172
-0.199
-0.193
-0.167
-0.143
-0.127
-0.118
-0.116
-0.115
-0.114
-0.112
-0.111
-0.119
-0.117
-0.116
-0.114
-0.113
-0.103
-0.102
-0.101
-0.099
-0.094
-0.086
-0.074
-0.057
-0.038
-0.019
-0.001
0.015
0.031
0.048
0.067
0.086
0.105
0.124
0.141
0.156
0.168
0.176
0.181
0.185
0.188
0.189
0.191
0.191
0.188
0.185
0.18
0.174
0.168
0.162
0.153
0.128
0.115
0.099
0.08
0.059
0.055
0.035
0.015
-0.004
-0.021
-0.038
-0.054
-0.071
-0.09
-0.107
-0.118
-0.125
-0.128
-0.121
-0.119
-0.118
-0.117
-0.116
-0.121
-0.12
-0.119
-0.118
-0.116
-0.115
-0.113
-0.111
-0.11
-0.109
-0.109
-0.108
-0.108
-0.108
-0.107
-0.105
-0.104
-0.103
-0.102
-0.101
-0.101
-0.101
-0.1
-0.099
-0.097
-0.095
-0.094
-0.093
-0.092
-0.09
-0.089
-0.087
-0.086
-0.085
-0.084
-0.083
-0.082
-0.081
-0.08
-0.079
-0.079
-0.077
-0.077
-0.077
-0.076
-0.075
-0.075
-0.075
-0.071
-0.065
-0.055
-0.041
-0.025
-0.008
0.008
0.023
0.038
0.047
0.054
0.058
0.059
0.056
0.053
0.047
0.037
0.024
0.009
-0.006
-0.022
-0.038
-0.051
-0.063
-0.071
-0.075
-0.076
-0.076
-0.075
-0.075
-0.075
-0.074
-0.074
-0.072
-0.071
-0.07
-0.071
-0.07
-0.07
-0.071
-0.071
-0.07
-0.07
-0.077
-0.084
-0.071
-0.036
0.026
0.12
0.23
0.34
0.45
0.564
0.68
0.77
0.812
0.807
0.751
0.644
0.512
0.381
0.251
0.112
-0.022
-0.121
-0.183
-0.214
-0.209
-0.181
-0.156
-0.14
-0.13
-0.128
-0.127
-0.126
-0.124
-0.123
-0.121
-0.12
-0.118
-0.116
-0.116
-0.114
-0.113
-0.113
-0.112
-0.107
-0.099
-0.087
-0.071
-0.053
-0.034
-0.014
0.004
0.02
0.036
0.054
0.072
0.093
0.113
0.13
0.144
0.155
0.163
0.168
0.172
0.174
0.176
0.177
0.177
0.176
0.173
0.169
0.163
0.158
0.151
0.144
0.132
0.118
0.102
0.084
0.063
0.043
0.021
0.001
-0.018
-0.034
-0.052
-0.07
-0.088
-0.105
-0.119
-0.13
-0.138
-0.141
-0.141
-0.14
-0.139
-0.137
-0.135
-0.134
-0.133
-0.132
-0.131
-0.131
-0.13
-0.129
-0.127
-0.125
-0.124
-0.123
-0.117
-0.115
-0.114
-0.112
-0.11
-0.114
-0.113
-0.112
-0.111
-0.111
-0.109
-0.108
-0.107
-0.106
-0.105
-0.105
-0.104
-0.103
-0.101
-0.1
-0.1
-0.099
-0.098
-0.098
-0.098
-0.097
-0.096
-0.095
-0.094
-0.093
-0.088
-0.088
-0.087
-0.085
-0.083
-0.086
-0.085
-0.08
-0.073
-0.063
-0.049
-0.032
-0.014
0.002
0.016
0.028
0.038
0.045
0.05
0.051
0.049
0.046
0.039
0.028
0.016
0.002
-0.013
-0.031
-0.047
-0.06
-0.067
-0.076
-0.08
-0.081
-0.081
-0.083
-0.083
-0.082
-0.081
-0.081
-0.08
-0.079
-0.078
-0.077
-0.077
-0.075
-0.074
-0.074
-0.072
-0.074
-0.081
-0.087
-0.072
-0.036
0.023
0.111
0.225
0.345
0.459
0.567
0.674
0.763
0.808
0.803
0.749
0.647
0.512
0.371
0.236
0.107
-0.016
-0.114
-0.18
-0.212
-0.207
-0.18
-0.155
-0.137
-0.127
-0.124
-0.122
-0.122
-0.121
-0.121
-0.12
-0.12
-0.118
-0.116
-0.115
-0.113
-0.111
-0.11
-0.108
-0.102
-0.096
-0.084
-0.069
-0.049
-0.031
-0.013
0.003
0.02
0.039
0.058
0.078
0.097
0.117
0.135
0.149
0.159
0.167
0.172
0.176
0.179
0.181
0.182
0.183
0.182
0.179
0.175
0.171
0.165
0.157
0.149
0.123
0.11
0.093
0.074
0.053
0.049
0.03
0.01
-0.009
-0.026
-0.042
-0.057
-0.073
-0.091
-0.106
-0.117
-0.125
-0.129
-0.129
-0.128
-0.126
-0.125
-0.115
-0.113
-0.113
-0.112
-0.111
-0.118
-0.117
-0.115
-0.113
-0.112
-0.112
-0.111
-0.11
-0.11
-0.109
-0.108
-0.105
-0.103
-0.102
-0.1
-0.098
-0.098
-0.097
-0.096
-0.094
-0.094
-0.093
-0.091
-0.09
-0.089
-0.088
-0.087
-0.087
-0.087
-0.086
-0.085
-0.084
-0.083
-0.081
-0.08
-0.079
-0.078
-0.081
-0.081
-0.082
-0.081
-0.081
-0.077
-0.076
-0.071
-0.063
-0.05
-0.034
-0.018
-0.001
0.016
0.031
0.044
0.054
0.061
0.065
0.065
0.063
0.06
0.053
0.043
0.03
0.016
0
-0.016
-0.032
-0.046
-0.056
-0.063
-0.067
-0.068
-0.067
-0.067
-0.067
-0.066
-0.066
-0.066
-0.065
-0.064
-0.064
-0.063
-0.061
-0.06
-0.059
-0.058
-0.056
-0.059
-0.067
-0.073
-0.06
-0.023
0.042
0.137
0.247
0.356
0.467
0.584
0.698
0.784
0.823
0.813
0.751
0.641
0.509
0.379
0.247
0.108
-0.022
-0.116
-0.176
-0.204
-0.198
-0.171
-0.147
-0.131
-0.123
-0.12
-0.119
-0.118
-0.117
-0.115
-0.114
-0.114
-0.113
-0.112
-0.11
-0.109
-0.107
-0.105
-0.103
-0.098
-0.089
-0.076
-0.062
-0.045
-0.027
-0.009
0.008
0.025
0.043
0.062
0.082
0.103
0.122
0.138
0.153
0.165
0.173
0.177
0.181
0.183
0.184
0.185
0.185
0.183
0.181
0.177
0.172
0.166
0.159
0.151
0.137
0.123
0.107
0.09
0.068
0.049
0.027
0.008
-0.011
-0.027
-0.044
-0.061
-0.078
-0.095
-0.11
-0.121
-0.129
-0.133
-0.137
-0.136
-0.134
-0.133
-0.131
-0.125
-0.123
-0.122
-0.12
-0.119
-0.119
-0.118
-0.116
-0.116
-0.115
-0.114
-0.113
-0.113
-0.112
-0.111
-0.116
-0.115
-0.114
-0.113
-0.113
-0.106
-0.104
-0.103
-0.102
-0.102
-0.101
-0.1
-0.1
-0.099
-0.098
-0.097
-0.097
-0.097
-0.096
-0.096
-0.096
-0.095
-0.093
-0.091
-0.091
-0.089
-0.087
-0.086
-0.086
-0.084
-0.083
-0.082
-0.081
-0.076
-0.069
-0.058
-0.044
-0.026
-0.008
0.008
0.023
0.034
0.043
0.05
0.053
0.054
0.052
0.048
0.041
0.031
0.019
0.005
-0.011
-0.027
-0.043
-0.056
-0.061
-0.07
-0.075
-0.076
-0.076
-0.082
-0.081
-0.08
-0.08
-0.08
-0.079
-0.078
-0.078
-0.077
-0.075
-0.075
-0.075
-0.075
-0.09
-0.093
-0.101
-0.107
-0.092
-0.038
0.022
0.112
0.227
0.346
0.458
0.567
0.674
0.763
0.805
0.797
0.739
0.634
0.496
0.355
0.221
0.093
-0.029
-0.126
-0.19
-0.218
-0.212
-0.185
-0.16
-0.143
-0.134
-0.131
-0.13
-0.128
-0.126
-0.125
-0.132
-0.131
-0.129
-0.128
-0.128
-0.118
-0.117
-0.116
-0.114
-0.108
-0.101
-0.09
-0.074
-0.056
-0.038
-0.019
-0.003
0.014
0.033
0.051
0.069
0.088
0.108
0.126
0.14
0.151
0.158
0.165
0.169
0.172
0.174
0.175
0.175
0.173
0.17
0.166
0.161
0.154
0.147
0.138
0.114
0.101
0.085
0.066
0.045
0.039
0.02
-0
-0.019
-0.036
-0.051
-0.068
-0.085
-0.102
-0.115
-0.126
-0.132
-0.136
-0.136
-0.136
-0.136
-0.135
-0.134
-0.133
-0.132
-0.13
-0.128
-0.126
-0.124
-0.122
-0.13
-0.128
-0.127
-0.125
-0.124
-0.114
-0.113
-0.112
-0.111
-0.11
-0.108
-0.107
-0.105
-0.105
-0.103
-0.102
-0.1
-0.099
-0.097
-0.096
-0.095
-0.095
-0.094
-0.092
-0.092
-0.091
-0.09
-0.088
-0.088
-0.088
-0.086
-0.086
-0.086
-0.085
-0.088
-0.087
-0.086
-0.084
-0.083
-0.078
-0.076
-0.072
-0.064
-0.052
-0.037
-0.021
-0.005
0.012
0.028
0.04
0.05
0.056
0.059
0.059
0.058
0.054
0.048
0.038
0.024
0.009
-0.005
-0.021
-0.037
-0.05
-0.065
-0.073
-0.077
-0.077
-0.078
-0.073
-0.074
-0.073
-0.074
-0.073
-0.072
-0.071
-0.07
-0.069
-0.068
-0.068
-0.067
-0.067
-0.066
-0.068
-0.077
-0.081
-0.065
-0.026
0.042
0.138
0.248
0.359
0.471
0.588
0.662
0.744
0.78
0.768
0.704
0.633
0.503
0.373
0.24
0.102
-0.025
-0.118
-0.175
-0.202
-0.195
-0.168
-0.145
-0.13
-0.121
-0.118
-0.117
-0.116
-0.115
-0.114
-0.112
-0.112
-0.11
-0.109
-0.109
-0.108
-0.106
-0.105
-0.102
-0.096
-0.086
-0.074
-0.059
-0.041
-0.022
-0.004
0.014
0.031
0.047
0.066
0.087
0.108
0.128
0.146
0.161
0.172
0.18
0.185
0.188
0.191
0.193
0.194
0.194
0.192
0.187
0.181
0.175
0.168
0.161
0.153
0.136
0.122
0.106
0.088
0.068
0.051
0.031
0.012
-0.006
-0.023
-0.041
-0.059
-0.075
-0.091
-0.105
-0.116
-0.123
-0.126
-0.125
-0.124
-0.122
-0.121
-0.12
-0.119
-0.118
-0.117
-0.116
-0.115
-0.114
-0.113
-0.106
-0.105
-0.104
-0.103
-0.102
-0.106
-0.106
-0.105
-0.104
-0.102
-0.101
-0.099
-0.098
-0.097
-0.096
-0.095
-0.094
-0.094
-0.092
-0.091
-0.089
-0.088
-0.087
-0.086
-0.086
-0.086
-0.085
-0.085
-0.085
-0.084
-0.083
-0.082
-0.082
-0.082
-0.08
-0.08
-0.08
-0.079
-0.077
-0.076
-0.075
-0.069
-0.061
-0.049
-0.035
-0.018
0
0.016
0.03
0.043
0.053
0.059
0.063
0.064
0.062
0.059
0.052
0.042
0.028
0.014
-0.002
-0.02
-0.035
-0.048
-0.05
-0.058
-0.062
-0.062
-0.061
-0.069
-0.069
-0.069
-0.069
-0.069
-0.068
-0.066
-0.065
-0.065
-0.064
-0.064
-0.064
-0.063
-0.062
-0.064
-0.073
-0.079
-0.064
-0.026
0.037
0.131
0.249
0.369
0.48
0.587
0.688
0.774
0.812
0.8
0.739
0.637
0.497
0.355
0.223
0.095
-0.027
-0.123
-0.185
-0.21
-0.202
-0.175
-0.151
-0.135
-0.127
-0.124
-0.122
-0.119
-0.117
-0.115
-0.114
-0.113
-0.112
-0.111
-0.11
-0.109
-0.108
-0.107
-0.106
-0.101
-0.092
-0.079
-0.062
-0.042
-0.023
-0.007
0.009
0.026
0.044
0.062
0.08
0.099
0.12
0.137
0.151
0.162
0.17
0.175
0.178
0.18
0.181
0.181
0.181
0.179
0.175
0.172
0.168
0.162
0.155
0.147
0.124
0.11
0.094
0.073
0.052
0.043
0.023
0.002
-0.018
-0.035
-0.052
-0.067
-0.085
-0.102
-0.116
-0.126
-0.133
-0.136
-0.136
-0.135
-0.135
-0.134
-0.132
-0.131
-0.13
-0.129
-0.127
-0.124
-0.123
-0.121
-0.128
-0.128
-0.127
-0.126
-0.125
-0.116
-0.115
-0.114
-0.114
-0.113
-0.112
-0.11
-0.108
-0.107
-0.106
-0.105
-0.105
-0.105
-0.104
-0.104
-0.103
-0.102
-0.1
-0.1
-0.099
-0.098
-0.097
-0.095
-0.093
-0.092
-0.09
-0.09
-0.09
-0.09
-0.089
-0.089
-0.089
-0.088
-0.086
-0.086
-0.085
-0.08
-0.073
-0.062
-0.048
-0.032
-0.015
0.003
0.019
0.032
0.042
0.048
0.057
0.057
0.055
0.051
0.044
0.027
0.013
-0.001
-0.017
-0.033
-0.049
-0.061
-0.077
-0.084
-0.087
-0.088
-0.089
-0.083
-0.083
-0.083
-0.083
-0.083
-0.081
-0.08
-0.078
-0.077
-0.076
-0.075
-0.074
-0.073
-0.072
-0.074
-0.084
-0.089
-0.073
-0.032
0.037
0.134
0.246
0.357
0.47
0.587
0.658
0.737
0.769
0.753
0.686
0.615
0.485
0.356
0.221
0.081
-0.044
-0.133
-0.19
-0.214
-0.203
-0.174
-0.151
-0.136
-0.128
-0.125
-0.125
-0.124
-0.122
-0.121
-0.121
-0.12
-0.119
-0.119
-0.118
-0.116
-0.114
-0.113
-0.111
-0.106
-0.097
-0.085
-0.07
-0.051
-0.032
-0.013
0.005
0.022
0.039
0.058
0.079
0.099
0.117
0.134
0.148
0.159
0.166
0.171
0.174
0.177
0.179
0.181
0.181
0.18
0.176
0.171
0.166
0.16
0.153
0.144
0.133
0.119
0.103
0.084
0.063
0.041
0.02
0.001
-0.016
-0.033
-0.052
-0.069
-0.086
-0.103
-0.116
-0.125
-0.131
-0.134
-0.133
-0.132
-0.132
-0.131
-0.13
-0.129
-0.128
-0.126
-0.124
-0.122
-0.122
-0.121
-0.116
-0.115
-0.115
-0.114
-0.112
-0.115
-0.114
-0.112
-0.11
-0.108
-0.107
-0.105
-0.104
-0.104
-0.103
-0.101
-0.101
-0.101
-0.1
-0.1
-0.099
-0.098
-0.096
-0.094
-0.092
-0.091
-0.09
-0.089
-0.088
-0.086
-0.085
-0.083
-0.083
-0.081
-0.08
-0.079
-0.078
-0.077
-0.077
-0.077
-0.075
-0.07
-0.062
-0.051
-0.036
-0.019
-0.002
0.014
0.028
0.04
0.05
0.058
0.063
0.064
0.062
0.058
0.05
0.04
0.027
0.013
-0.004
-0.022
-0.037
-0.048
-0.058
-0.065
-0.07
-0.071
-0.072
-0.072
-0.071
-0.069
-0.068
-0.068
-0.067
-0.066
-0.065
-0.064
-0.064
-0.063
-0.062
-0.061
-0.06
-0.062
-0.071
-0.075
-0.057
-0.017
0.047
0.143
0.262
0.379
0.489
0.596
0.692
0.776
0.811
0.796
0.733
0.634
0.494
0.355
0.225
0.097
-0.023
-0.118
-0.178
-0.201
-0.192
-0.165
-0.141
-0.125
-0.117
-0.116
-0.115
-0.115
-0.114
-0.113
-0.112
-0.11
-0.109
-0.108
-0.108
-0.107
-0.106
-0.104
-0.101
-0.095
-0.086
-0.073
-0.057
-0.038
-0.019
-0.002
0.015
0.033
0.052
0.07
0.088
0.108
0.128
0.146
0.161
0.172
0.18
0.185
0.189
0.191
0.193
0.193
0.193
0.191
0.188
0.183
0.178
0.171
0.163
0.155
0.145
0.131
0.114
0.095
0.074
0.053
0.033
0.013
-0.015
-0.032
-0.048
-0.064
-0.082
-0.091
-0.105
-0.115
-0.122
-0.126
-0.125
-0.125
-0.124
-0.123
-0.121
-0.12
-0.119
-0.118
-0.116
-0.114
-0.112
-0.111
-0.116
-0.115
-0.115
-0.114
-0.112
-0.106
-0.105
-0.105
-0.104
-0.104
-0.103
-0.102
-0.1
-0.1
-0.098
-0.096
-0.094
-0.093
-0.091
-0.091
-0.091
-0.09
-0.09
-0.089
-0.088
-0.087
-0.085
-0.083
-0.083
-0.082
-0.081
-0.08
-0.079
-0.078
-0.077
-0.076
-0.077
-0.076
-0.075
-0.075
-0.074
-0.069
-0.06
-0.049
-0.034
-0.018
-0.001
0.016
0.031
0.042
0.051
0.056
0.059
0.059
0.057
0.053
0.045
0.034
0.02
0.006
-0.009
-0.026
-0.042
-0.055
-0.064
-0.071
-0.074
-0.075
-0.074
-0.075
-0.074
-0.073
-0.073
-0.073
-0.072
-0.071
-0.07
-0.069
-0.069
-0.069
-0.069
-0.07
-0.069
-0.072
-0.08
-0.082
-0.063
-0.02
0.05
0.146
0.255
0.365
0.48
0.597
0.665
0.743
0.773
0.754
0.685
0.614
0.483
0.352
0.213
0.072
-0.05
-0.138
-0.192
-0.214
-0.202
-0.174
-0.152
-0.137
-0.128
-0.126
-0.125
-0.123
-0.122
-0.121
-0.121
-0.12
-0.119
-0.118
-0.116
-0.114
-0.113
-0.112
-0.11
-0.104
-0.095
-0.082
-0.065
-0.047
-0.028
-0.009
0.008
0.024
0.042
0.061
0.08
0.099
0.117
0.133
0.147
0.159
0.166
0.171
0.173
0.175
0.176
0.176
0.176
0.174
0.171
0.166
0.162
0.156
0.15
0.141
0.12
0.106
0.09
0.071
0.049
0.036
0.014
-0.006
-0.024
-0.041
-0.06
-0.077
-0.094
-0.11
-0.123
-0.132
-0.138
-0.141
-0.139
-0.138
-0.136
-0.135
-0.133
-0.132
-0.131
-0.13
-0.129
-0.128
-0.127
-0.126
-0.123
-0.123
-0.123
-0.122
-0.121
-0.122
-0.12
-0.119
-0.118
-0.117
-0.116
-0.115
-0.114
-0.113
-0.111
-0.109
-0.107
-0.106
-0.104
-0.103
-0.102
-0.101
-0.1
-0.099
-0.098
-0.098
-0.097
-0.096
-0.096
-0.095
-0.093
-0.093
-0.092
-0.091
-0.089
-0.088
-0.088
-0.086
-0.083
-0.082
-0.081
-0.076
-0.068
-0.059
-0.044
-0.026
-0.008
0.007
0.021
0.033
0.042
0.048
0.051
0.052
0.05
0.046
0.04
0.031
0.019
0.005
-0.012
-0.03
-0.045
-0.058
-0.068
-0.074
-0.077
-0.078
-0.078
-0.079
-0.079
-0.079
-0.077
-0.076
-0.075
-0.074
-0.073
-0.073
-0.071
-0.07
-0.07
-0.069
-0.069
-0.073
-0.083
-0.087
-0.067
-0.026
0.042
0.141
0.263
0.38
0.49
0.598
0.688
0.77
0.801
0.783
0.716
0.617
0.475
0.337
0.208
0.079
-0.041
-0.135
-0.192
-0.213
-0.201
-0.174
-0.15
-0.135
-0.127
-0.125
-0.124
-0.123
-0.121
-0.12
-0.119
-0.117
-0.115
-0.115
-0.113
-0.112
-0.111
-0.109
-0.107
-0.101
-0.092
-0.078
-0.061
-0.042
-0.024
-0.007
0.01
0.028
0.047
0.065
0.083
0.103
0.122
0.138
0.151
0.16
0.167
0.172
0.175
0.178
0.18
0.18
0.181
0.18
0.176
0.172
0.167
0.161
0.153
0.146
0.136
0.122
0.105
0.086
0.067
0.046
0.026
0.005
-0.014
-0.031
-0.047
-0.064
-0.081
-0.098
-0.111
-0.121
-0.127
-0.129
-0.128
-0.126
-0.125
-0.124
-0.123
-0.122
-0.121
-0.119
-0.117
-0.115
-0.113
-0.113
-0.114
-0.113
-0.112
-0.11
-0.109
-0.106
-0.106
-0.104
-0.104
-0.104
-0.103
-0.102
-0.101
-0.101
-0.099
-0.098
-0.096
-0.095
-0.093
-0.091
-0.09
-0.088
-0.087
-0.087
-0.087
-0.087
-0.086
-0.085
-0.083
-0.083
-0.082
-0.082
-0.082
-0.081
-0.079
-0.078
-0.076
-0.075
-0.073
-0.073
-0.072
-0.067
-0.058
-0.046
-0.032
-0.016
0
0.016
0.031
0.044
0.054
0.061
0.064
0.064
0.061
0.056
0.048
0.037
0.024
0.009
-0.006
-0.022
-0.037
-0.05
-0.068
-0.074
-0.077
-0.077
-0.077
-0.067
-0.067
-0.066
-0.066
-0.066
-0.065
-0.065
-0.064
-0.063
-0.062
-0.061
-0.06
-0.058
-0.058
-0.061
-0.07
-0.072
-0.052
-0.007
0.065
0.162
0.272
0.384
0.501
0.617
0.683
0.757
0.784
0.762
0.69
0.618
0.487
0.355
0.184
0.044
-0.074
-0.159
-0.211
-0.197
-0.184
-0.158
-0.137
-0.124
-0.116
-0.113
-0.112
-0.111
-0.11
-0.109
-0.109
-0.108
-0.106
-0.105
-0.104
-0.102
-0.107
-0.106
-0.104
-0.098
-0.083
-0.064
-0.049
-0.031
-0.013
-0.001
0.016
0.033
0.051
0.072
0.092
0.111
0.129
0.145
0.159
0.17
0.178
0.183
0.185
0.187
0.188
0.188
0.187
0.185
0.182
0.177
0.172
0.166
0.159
0.149
0.138
0.124
0.108
0.09
0.069
0.047
0.026
0.007
-0.011
-0.029
-0.047
-0.064
-0.082
-0.099
-0.114
-0.126
-0.132
-0.135
-0.134
-0.133
-0.131
-0.129
-0.126
-0.124
-0.123
-0.122
-0.121
-0.12
-0.119
-0.117
-0.115
-0.114
-0.113
-0.112
-0.112
-0.112
-0.112
-0.111
-0.111
-0.111
-0.11
-0.11
-0.11
-0.11
-0.109
-0.108
-0.107
-0.106
-0.104
-0.102
-0.101
-0.101
-0.1
-0.099
-0.098
-0.096
-0.095
-0.094
-0.093
-0.092
-0.089
-0.088
-0.088
-0.088
-0.079
-0.08
-0.08
-0.079
-0.078
-0.086
-0.084
-0.079
-0.072
-0.061
-0.045
-0.027
-0.01
0.005
0.019
0.031
0.041
0.047
0.05
0.05
0.048
0.043
0.035
0.025
0.012
-0.004
-0.02
-0.037
-0.051
-0.063
-0.071
-0.077
-0.08
-0.081
-0.081
-0.082
-0.081
-0.08
-0.078
-0.077
-0.076
-0.075
-0.075
-0.075
-0.075
-0.075
-0.075
-0.075
-0.074
-0.077
-0.087
-0.088
-0.068
-0.026
0.042
0.144
0.265
0.38
0.49
0.598
0.682
0.761
0.79
0.769
0.699
0.605
0.463
0.326
0.195
0.066
-0.055
-0.147
-0.201
-0.218
-0.204
-0.174
-0.151
-0.136
-0.13
-0.129
-0.129
-0.129
-0.127
-0.126
-0.125
-0.122
-0.121
-0.12
-0.119
-0.118
-0.108
-0.107
-0.104
-0.098
-0.088
-0.085
-0.067
-0.048
-0.03
-0.013
0.004
0.022
0.04
0.058
0.076
0.096
0.116
0.133
0.146
0.156
0.164
0.169
0.173
0.175
0.177
0.176
0.176
0.174
0.17
0.165
0.16
0.153
0.145
0.136
0.125
0.11
0.091
0.072
0.052
0.032
0.013
-0.007
-0.024
-0.041
-0.057
-0.074
-0.093
-0.111
-0.123
-0.133
-0.139
-0.141
-0.14
-0.139
-0.138
-0.137
-0.134
-0.132
-0.13
-0.128
-0.126
-0.125
-0.124
-0.123
-0.121
-0.12
-0.118
-0.117
-0.115
-0.113
-0.112
-0.11
-0.11
-0.11
-0.109
-0.108
-0.108
-0.106
-0.104
-0.103
-0.102
-0.101
-0.099
-0.098
-0.097
-0.097
-0.096
-0.096
-0.096
-0.095
-0.093
-0.092
-0.091
-0.089
-0.09
-0.089
-0.089
-0.088
-0.087
-0.085
-0.084
-0.083
-0.081
-0.081
-0.079
-0.074
-0.065
-0.053
-0.037
-0.019
-0.002
0.015
0.03
0.041
0.05
0.055
0.058
0.058
0.056
0.051
0.044
0.032
0.019
0.004
-0.011
-0.028
-0.045
-0.058
-0.067
-0.073
-0.075
-0.075
-0.075
-0.074
-0.074
-0.074
-0.073
-0.073
-0.072
-0.071
-0.07
-0.07
-0.069
-0.069
-0.069
-0.068
-0.067
-0.07
-0.078
-0.078
-0.055
-0.008
0.065
0.163
0.273
0.385
0.502
0.617
0.681
0.752
0.777
0.752
0.678
0.604
0.473
0.34
0.2
0.062
-0.054
-0.136
-0.187
-0.204
-0.189
-0.161
-0.14
-0.126
-0.118
-0.116
-0.115
-0.114
-0.112
-0.111
-0.109
-0.108
-0.106
-0.104
-0.104
-0.103
-0.109
-0.109
-0.107
-0.1
-0.09
-0.07
-0.054
-0.036
-0.018
-0
0.017
0.033
0.052
0.071
0.092
0.112
0.13
0.147
0.166
0.178
0.185
0.19
0.193
0.19
0.191
0.191
0.19
0.188
0.184
0.179
0.174
0.169
0.162
0.153
0.141
0.127
0.111
0.091
0.07
0.049
0.029
0.01
-0.007
-0.025
-0.043
-0.06
-0.076
-0.092
-0.105
-0.116
-0.122
-0.124
-0.124
-0.123
-0.122
-0.121
-0.119
-0.119
-0.118
-0.116
-0.114
-0.113
-0.112
-0.111
-0.109
-0.109
-0.108
-0.107
-0.106
-0.105
-0.104
-0.103
-0.101
-0.1
-0.099
-0.097
-0.096
-0.096
-0.096
-0.095
-0.094
-0.093
-0.091
-0.09
-0.09
-0.089
-0.088
-0.087
-0.086
-0.086
-0.085
-0.084
-0.083
-0.081
-0.08
-0.079
-0.078
-0.078
-0.078
-0.077
-0.078
-0.077
-0.076
-0.075
-0.072
-0.066
-0.056
-0.044
-0.028
-0.01
0.007
0.022
0.036
0.049
0.059
0.065
0.067
0.067
0.063
0.058
0.051
0.04
0.027
0.012
-0.005
-0.022
-0.037
-0.049
-0.057
-0.063
-0.067
-0.068
-0.067
-0.068
-0.068
-0.067
-0.067
-0.067
-0.066
-0.065
-0.065
-0.064
-0.063
-0.062
-0.061
-0.061
-0.06
-0.064
-0.076
-0.077
-0.055
-0.011
0.059
0.164
0.284
0.397
0.505
0.613
0.722
0.799
0.824
0.799
0.726
0.603
0.461
0.325
0.196
0.066
-0.055
-0.145
-0.196
-0.211
-0.196
-0.167
-0.144
-0.131
-0.125
-0.124
-0.123
-0.122
-0.12
-0.119
-0.119
-0.117
-0.115
-0.114
-0.113
-0.111
-0.101
-0.101
-0.099
-0.093
-0.07
-0.066
-0.048
-0.028
-0.01
-0.007
0.012
0.03
0.048
0.066
0.085
0.104
0.123
0.138
0.15
0.158
0.166
0.171
0.174
0.177
0.179
0.18
0.179
0.178
0.174
0.168
0.162
0.156
0.148
0.141
0.13
0.116
0.098
0.078
0.057
0.036
0.016
-0.005
-0.022
-0.038
-0.054
-0.072
-0.09
-0.108
-0.121
-0.131
-0.138
-0.142
-0.142
-0.141
-0.14
-0.139
-0.136
-0.134
-0.132
-0.13
-0.128
-0.127
-0.127
-0.125
-0.121
-0.121
-0.12
-0.119
-0.118
-0.12
-0.119
-0.118
-0.117
-0.116
-0.115
-0.113
-0.113
-0.114
-0.113
-0.112
-0.112
-0.11
-0.107
-0.106
-0.105
-0.104
-0.103
-0.102
-0.101
-0.099
-0.097
-0.096
-0.096
-0.095
-0.092
-0.091
-0.09
-0.087
-0.086
-0.087
-0.086
-0.086
-0.086
-0.085
-0.082
-0.077
-0.066
-0.054
-0.039
-0.023
-0.006
0.01
0.025
0.036
0.044
0.05
0.051
0.05
0.047
0.042
0.034
0.023
0.01
-0.005
-0.02
-0.037
-0.052
-0.064
-0.072
-0.077
-0.079
-0.08
-0.08
-0.081
-0.081
-0.08
-0.08
-0.081
-0.081
-0.08
-0.08
-0.08
-0.078
-0.078
-0.077
-0.077
-0.077
-0.081
-0.09
-0.089
-0.065
-0.017
0.058
0.157
0.269
0.383
0.502
0.616
0.718
0.787
0.808
0.779
0.702
0.585
0.454
0.32
0.181
0.045
-0.069
-0.149
-0.198
-0.214
-0.198
-0.171
-0.151
-0.138
-0.132
-0.13
-0.13
-0.128
-0.127
-0.126
-0.124
-0.123
-0.122
-0.12
-0.12
-0.119
-0.118
-0.116
-0.113
-0.106
-0.095
-0.081
-0.065
-0.045
-0.026
-0.01
0.006
0.022
0.04
0.061
0.082
0.102
0.12
0.136
0.15
0.16
0.166
0.171
0.174
0.177
0.179
0.18
0.18
0.178
0.174
0.168
0.163
0.156
0.148
0.139
0.127
0.113
0.097
0.077
0.055
0.034
0.015
-0.003
-0.02
-0.037
-0.054
-0.071
-0.087
-0.103
-0.118
-0.128
-0.134
-0.135
-0.134
-0.132
-0.132
-0.131
-0.129
-0.128
-0.127
-0.125
-0.123
-0.121
-0.12
-0.119
-0.119
-0.119
-0.118
-0.116
-0.114
-0.112
-0.111
-0.11
-0.11
-0.109
-0.107
-0.106
-0.105
-0.105
-0.103
-0.103
-0.101
-0.1
-0.097
-0.096
-0.095
-0.094
-0.093
-0.093
-0.092
-0.091
-0.09
-0.089
-0.088
-0.087
-0.087
-0.087
-0.086
-0.085
-0.084
-0.083
-0.082
-0.082
-0.081
-0.08
-0.077
-0.07
-0.06
-0.048
-0.031
-0.013
0.004
0.019
0.034
0.045
0.054
0.059
0.061
0.061
0.059
0.055
0.048
0.037
0.024
0.009
-0.008
-0.025
-0.039
-0.05
-0.059
-0.065
-0.068
-0.068
-0.068
-0.069
-0.068
-0.068
-0.067
-0.068
-0.067
-0.067
-0.066
-0.065
-0.064
-0.063
-0.062
-0.062
-0.061
-0.065
-0.076
-0.075
-0.051
-0.006
0.068
0.175
0.294
0.405
0.512
0.621
0.729
0.803
0.825
0.797
0.721
0.595
0.454
0.322
0.194
0.064
-0.056
-0.142
-0.19
-0.203
-0.186
-0.157
-0.135
-0.122
-0.117
-0.116
-0.116
-0.115
-0.113
-0.112
-0.11
-0.109
-0.108
-0.108
-0.107
-0.105
-0.095
-0.093
-0.09
-0.083
-0.073
-0.068
-0.051
-0.032
-0.015
0.002
0.021
0.039
0.058
0.076
0.096
0.116
0.135
0.15
0.162
0.171
0.178
0.182
0.185
0.187
0.188
0.189
0.19
0.188
0.184
0.18
0.174
0.166
0.159
0.15
0.139
0.124
0.105
0.086
0.065
0.045
0.023
0.002
-0.016
-0.032
-0.048
-0.064
-0.082
-0.097
-0.109
-0.118
-0.124
-0.125
-0.125
-0.124
-0.124
-0.123
-0.122
-0.121
-0.12
-0.12
-0.119
-0.118
-0.117
-0.115
-0.113
-0.112
-0.111
-0.11
-0.108
-0.107
-0.106
-0.105
-0.105
-0.105
-0.105
-0.103
-0.102
-0.1
-0.097
-0.096
-0.095
-0.094
-0.093
-0.093
-0.093
-0.092
-0.09
-0.089
-0.088
-0.087
-0.086
-0.085
-0.084
-0.083
-0.077
-0.077
-0.077
-0.076
-0.075
-0.079
-0.078
-0.076
-0.076
-0.076
-0.074
-0.068
-0.058
-0.046
-0.031
-0.014
0.003
0.019
0.033
0.043
0.051
0.056
0.057
0.057
0.055
0.05
0.041
0.031
0.018
0.004
-0.012
-0.028
-0.044
-0.056
-0.065
-0.07
-0.072
-0.074
-0.074
-0.075
-0.075
-0.074
-0.074
-0.074
-0.073
-0.073
-0.073
-0.073
-0.072
-0.072
-0.072
-0.07
-0.069
-0.073
-0.083
-0.08
-0.055
-0.005
0.071
0.171
0.282
0.397
0.514
0.625
0.688
0.754
0.772
0.741
0.662
0.582
0.45
0.313
0.173
0.039
-0.071
-0.148
-0.195
-0.21
-0.192
-0.166
-0.147
-0.134
-0.129
-0.128
-0.128
-0.128
-0.126
-0.124
-0.123
-0.122
-0.12
-0.119
-0.119
-0.118
-0.124
-0.122
-0.12
-0.113
-0.103
-0.083
-0.067
-0.047
-0.028
-0.009
0.009
0.025
0.043
0.064
0.084
0.104
0.122
0.138
0.151
0.16
0.166
0.171
0.175
0.177
0.178
0.178
0.178
0.176
0.171
0.166
0.151
0.144
0.135
0.125
0.112
0.109
0.092
0.073
0.051
0.03
0.012
-0.007
-0.026
-0.044
-0.061
-0.078
-0.095
-0.11
-0.123
-0.134
-0.14
-0.141
-0.141
-0.139
-0.138
-0.138
-0.136
-0.133
-0.132
-0.13
-0.127
-0.126
-0.125
-0.124
-0.122
-0.121
-0.12
-0.118
-0.117
-0.117
-0.117
-0.116
-0.115
-0.114
-0.113
-0.112
-0.112
-0.111
-0.11
-0.109
-0.108
-0.107
-0.106
-0.104
-0.104
-0.103
-0.101
-0.1
-0.099
-0.098
-0.097
-0.096
-0.096
-0.095
-0.093
-0.092
-0.091
-0.089
-0.087
-0.087
-0.087
-0.086
-0.086
-0.086
-0.083
-0.077
-0.068
-0.055
-0.039
-0.021
-0.004
0.011
0.026
0.038
0.048
0.053
0.055
0.055
0.052
0.046
0.039
0.028
0.015
-0.001
-0.026
-0.044
-0.058
-0.07
-0.079
-0.076
-0.078
-0.078
-0.078
-0.079
-0.079
-0.079
-0.079
-0.078
-0.077
-0.076
-0.074
-0.073
-0.071
-0.07
-0.07
-0.07
-0.07
-0.075
-0.086
-0.084
-0.058
-0.011
0.066
0.176
0.328
0.439
0.546
0.656
0.764
0.797
0.814
0.783
0.702
0.573
0.434
0.304
0.175
0.044
-0.075
-0.16
-0.206
-0.217
-0.197
-0.168
-0.146
-0.133
-0.126
-0.124
-0.123
-0.122
-0.12
-0.12
-0.12
-0.119
-0.117
-0.115
-0.114
-0.113
-0.111
-0.11
-0.107
-0.1
-0.089
-0.075
-0.057
-0.039
-0.022
-0.006
0.012
0.03
0.049
0.068
0.088
0.109
0.128
0.142
0.155
0.164
0.171
0.177
0.18
0.183
0.184
0.185
0.184
0.181
0.177
0.172
0.165
0.158
0.15
0.142
0.131
0.117
0.099
0.08
0.06
0.04
0.019
-0.001
-0.018
-0.034
-0.051
-0.069
-0.086
-0.103
-0.115
-0.124
-0.131
-0.133
-0.133
-0.132
-0.13
-0.128
-0.126
-0.124
-0.123
-0.122
-0.121
-0.119
-0.118
-0.117
-0.116
-0.115
-0.114
-0.112
-0.11
-0.109
-0.107
-0.105
-0.103
-0.102
-0.101
-0.099
-0.097
-0.097
-0.096
-0.094
-0.094
-0.094
-0.093
-0.093
-0.093
-0.091
-0.09
-0.088
-0.088
-0.087
-0.085
-0.084
-0.083
-0.082
-0.081
-0.081
-0.081
-0.08
-0.078
-0.078
-0.077
-0.075
-0.074
-0.074
-0.07
-0.062
-0.051
-0.038
-0.021
-0.004
0.013
0.029
0.042
0.051
0.058
0.063
0.064
0.064
0.061
0.056
0.047
0.035
0.021
0.006
-0.008
-0.025
-0.041
-0.053
-0.061
-0.068
-0.07
-0.07
-0.07
-0.069
-0.067
-0.066
-0.067
-0.068
-0.069
-0.068
-0.067
-0.066
-0.064
-0.062
-0.061
-0.06
-0.061
-0.067
-0.076
-0.07
-0.04
0.016
0.097
0.202
0.315
0.432
0.55
0.659
0.716
0.771
0.777
0.735
0.647
0.563
0.431
0.293
0.153
0.021
-0.083
-0.154
-0.194
-0.199
-0.176
-0.15
-0.132
-0.121
-0.117
-0.116
-0.116
-0.116
-0.115
-0.114
-0.113
-0.111
-0.108
-0.106
-0.106
-0.104
-0.103
-0.102
-0.099
-0.091
-0.08
-0.067
-0.051
-0.032
-0.013
0.004
0.02
0.036
0.055
0.074
0.093
0.113
0.131
0.146
0.16
0.169
0.175
0.179
0.182
0.185
0.186
0.186
0.185
0.182
0.177
0.173
0.16
0.154
0.146
0.137
0.124
0.117
0.099
0.079
0.056
0.035
0.016
-0.002
-0.019
-0.037
-0.054
-0.071
-0.088
-0.105
-0.117
-0.125
-0.13
-0.131
-0.13
-0.129
-0.128
-0.127
-0.125
-0.124
-0.123
-0.122
-0.121
-0.121
-0.121
-0.12
-0.118
-0.117
-0.116
-0.114
-0.112
-0.112
-0.111
-0.11
-0.108
-0.108
-0.106
-0.105
-0.104
-0.104
-0.103
-0.102
-0.102
-0.101
-0.1
-0.099
-0.098
-0.098
-0.096
-0.095
-0.094
-0.094
-0.093
-0.093
-0.092
-0.092
-0.09
-0.089
-0.089
-0.087
-0.085
-0.085
-0.084
-0.084
-0.083
-0.084
-0.082
-0.076
-0.067
-0.054
-0.037
-0.02
-0.004
0.011
0.026
0.037
0.046
0.051
0.054
0.054
0.051
0.046
0.038
0.026
0.012
-0.004
-0.031
-0.047
-0.061
-0.072
-0.081
-0.077
-0.08
-0.081
-0.081
-0.081
-0.08
-0.08
-0.079
-0.079
-0.078
-0.077
-0.076
-0.076
-0.067
-0.066
-0.066
-0.066
-0.067
-0.08
-0.091
-0.087
-0.061
-0.012
0.068
0.181
0.298
0.409
0.517
0.629
0.737
0.802
0.815
0.781
0.695
0.562
0.425
0.294
0.165
0.032
-0.085
-0.166
-0.209
-0.218
-0.197
-0.169
-0.149
-0.137
-0.133
-0.131
-0.13
-0.13
-0.128
-0.126
-0.125
-0.123
-0.122
-0.121
-0.121
-0.119
-0.117
-0.116
-0.113
-0.106
-0.095
-0.079
-0.061
-0.044
-0.027
-0.01
0.007
0.025
0.043
0.061
0.081
0.101
0.119
0.134
0.146
0.154
0.161
0.166
0.169
0.171
0.173
0.173
0.173
0.171
0.168
0.163
0.158
0.151
0.143
0.134
0.122
0.107
0.089
0.07
0.05
0.03
0.009
-0.01
-0.027
-0.043
-0.06
-0.079
-0.098
-0.113
-0.126
-0.134
-0.139
-0.139
-0.137
-0.136
-0.135
-0.134
-0.133
-0.132
-0.131
-0.129
-0.123
-0.121
-0.12
-0.118
-0.115
-0.118
-0.118
-0.117
-0.115
-0.115
-0.115
-0.114
-0.113
-0.113
-0.111
-0.109
-0.107
-0.105
-0.103
-0.102
-0.101
-0.101
-0.1
-0.1
-0.099
-0.099
-0.098
-0.098
-0.097
-0.095
-0.093
-0.092
-0.091
-0.09
-0.089
-0.089
-0.089
-0.089
-0.088
-0.087
-0.085
-0.082
-0.08
-0.079
-0.077
-0.071
-0.062
-0.05
-0.034
-0.017
0.001
0.017
0.031
0.041
0.049
0.054
0.057
0.056
0.053
0.048
0.039
0.027
0.013
-0.002
-0.014
-0.031
-0.046
-0.056
-0.064
-0.074
-0.077
-0.077
-0.078
-0.078
-0.077
-0.076
-0.076
-0.075
-0.073
-0.072
-0.071
-0.069
-0.068
-0.068
-0.068
-0.068
-0.068
-0.073
-0.082
-0.077
-0.047
0.006
0.084
0.187
0.3
0.417
0.533
0.643
0.741
0.802
0.815
0.778
0.695
0.573
0.439
0.299
0.161
0.031
-0.075
-0.15
-0.194
-0.204
-0.183
-0.158
-0.138
-0.125
-0.119
-0.119
-0.118
-0.117
-0.115
-0.114
-0.113
-0.112
-0.11
-0.108
-0.107
-0.105
-0.104
-0.104
-0.102
-0.095
-0.085
-0.071
-0.053
-0.032
-0.012
0.005
0.022
0.038
0.056
0.076
0.094
0.113
0.131
0.148
0.162
0.171
0.177
0.181
0.183
0.183
0.185
0.186
0.186
0.184
0.18
0.174
0.164
0.158
0.15
0.141
0.13
0.12
0.103
0.081
0.058
0.037
0.018
-0.001
-0.018
-0.035
-0.05
-0.066
-0.083
-0.099
-0.112
-0.121
-0.126
-0.128
-0.126
-0.125
-0.124
-0.123
-0.121
-0.12
-0.119
-0.117
-0.117
-0.116
-0.114
-0.113
-0.11
-0.108
-0.107
-0.105
-0.104
-0.103
-0.102
-0.102
-0.101
-0.101
-0.101
-0.1
-0.098
-0.096
-0.093
-0.092
-0.092
-0.092
-0.092
-0.091
-0.09
-0.089
-0.088
-0.086
-0.086
-0.085
-0.083
-0.083
-0.083
-0.082
-0.082
-0.082
-0.081
-0.08
-0.078
-0.077
-0.075
-0.074
-0.073
-0.073
-0.072
-0.066
-0.056
-0.043
-0.026
-0.008
0.008
0.023
0.037
0.048
0.056
0.062
0.064
0.063
0.061
0.055
0.047
0.035
0.021
0.006
-0.022
-0.037
-0.051
-0.062
-0.071
-0.065
-0.068
-0.069
-0.07
-0.071
-0.07
-0.07
-0.069
-0.068
-0.067
-0.066
-0.066
-0.065
-0.065
-0.065
-0.066
-0.065
-0.065
-0.07
-0.08
-0.075
-0.047
0.003
0.086
0.198
0.348
0.458
0.567
0.68
0.786
0.81
0.821
0.782
0.691
0.558
0.423
0.293
0.164
0.029
-0.087
-0.164
-0.205
-0.212
-0.19
-0.161
-0.142
-0.131
-0.127
-0.126
-0.124
-0.122
-0.12
-0.119
-0.117
-0.116
-0.115
-0.115
-0.116
-0.116
-0.114
-0.113
-0.11
-0.102
-0.091
-0.076
-0.058
-0.039
-0.022
-0.004
0.014
0.032
0.049
0.069
0.089
0.109
0.127
0.141
0.153
0.161
0.167
0.171
0.174
0.176
0.177
0.178
0.178
0.176
0.172
0.167
0.161
0.154
0.147
0.139
0.127
0.111
0.092
0.072
0.051
0.029
0.009
-0.01
-0.027
-0.042
-0.058
-0.076
-0.094
-0.11
-0.123
-0.133
-0.14
-0.141
-0.149
-0.147
-0.146
-0.144
-0.143
-0.132
-0.132
-0.131
-0.127
-0.126
-0.125
-0.123
-0.121
-0.122
-0.121
-0.119
-0.118
-0.116
-0.115
-0.114
-0.113
-0.113
-0.112
-0.11
-0.108
-0.107
-0.106
-0.105
-0.106
-0.106
-0.105
-0.104
-0.103
-0.102
-0.101
-0.1
-0.101
-0.1
-0.1
-0.099
-0.099
-0.098
-0.089
-0.087
-0.087
-0.085
-0.084
-0.091
-0.09
-0.088
-0.088
-0.088
-0.084
-0.078
-0.068
-0.055
-0.039
-0.022
-0.004
0.011
0.024
0.035
0.043
0.048
0.051
0.051
0.049
0.044
0.035
0.023
0.009
-0.007
-0.02
-0.038
-0.053
-0.064
-0.072
-0.081
-0.082
-0.082
-0.081
-0.081
-0.081
-0.081
-0.08
-0.08
-0.079
-0.078
-0.078
-0.078
-0.077
-0.076
-0.076
-0.074
-0.073
-0.079
-0.088
-0.081
-0.051
0.003
0.081
0.185
0.3
0.418
0.532
0.639
0.735
0.792
0.802
0.762
0.618
0.495
0.36
0.219
0.084
0.017
-0.088
-0.161
-0.203
-0.21
-0.188
-0.162
-0.142
-0.131
-0.126
-0.126
-0.125
-0.124
-0.122
-0.121
-0.12
-0.119
-0.118
-0.118
-0.118
-0.117
-0.115
-0.113
-0.109
-0.101
-0.092
-0.079
-0.061
-0.041
-0.023
-0.003
0.014
0.032
0.051
0.07
0.089
0.108
0.126
0.142
0.155
0.164
0.169
0.173
0.176
0.178
0.18
0.181
0.181
0.18
0.176
0.171
0.165
0.158
0.149
0.14
0.128
0.115
0.097
0.075
0.052
0.032
0.012
-0.008
-0.026
-0.043
-0.06
-0.076
-0.092
-0.108
-0.119
-0.127
-0.132
-0.133
-0.132
-0.132
-0.131
-0.13
-0.128
-0.127
-0.125
-0.124
-0.126
-0.126
-0.125
-0.123
-0.122
-0.117
-0.116
-0.114
-0.113
-0.112
-0.112
-0.11
-0.108
-0.108
-0.106
-0.104
-0.103
-0.102
-0.101
-0.1
-0.099
-0.097
-0.097
-0.096
-0.095
-0.094
-0.092
-0.092
-0.091
-0.091
-0.09
-0.089
-0.087
-0.086
-0.094
-0.093
-0.092
-0.09
-0.089
-0.079
-0.079
-0.078
-0.078
-0.077
-0.074
-0.068
-0.058
-0.044
-0.026
-0.008
0.008
0.023
0.037
0.048
0.057
0.061
0.064
0.063
0.06
0.053
0.045
0.035
0.021
0.005
-0.011
-0.026
-0.04
-0.051
-0.059
-0.065
-0.068
-0.069
-0.07
-0.071
-0.069
-0.068
-0.067
-0.066
-0.065
-0.065
-0.064
-0.064
-0.058
-0.059
-0.059
-0.058
-0.058
-0.071
-0.082
-0.075
-0.045
0.009
0.092
0.201
0.351
0.461
0.569
0.68
0.779
0.795
0.803
0.762
0.67
0.54
0.407
0.277
0.148
0.018
-0.09
-0.161
-0.199
-0.204
-0.181
-0.154
-0.136
-0.125
-0.12
-0.117
-0.114
-0.112
-0.11
-0.109
-0.109
-0.109
-0.107
-0.106
-0.105
-0.104
-0.096
-0.096
-0.093
-0.086
-0.075
-0.067
-0.049
-0.032
-0.014
0.004
0.022
0.039
0.057
0.075
0.094
0.113
0.131
0.145
0.157
0.166
0.172
0.176
0.178
0.18
0.181
0.181
0.181
0.179
0.175
0.17
0.165
0.158
0.151
0.141
0.13
0.114
0.096
0.076
0.056
0.035
0.015
-0.004
-0.021
-0.037
-0.054
-0.072
-0.089
-0.104
-0.116
-0.125
-0.129
-0.13
-0.129
-0.128
-0.127
-0.126
-0.124
-0.122
-0.121
-0.12
-0.115
-0.115
-0.115
-0.113
-0.111
-0.114
-0.112
-0.111
-0.11
-0.109
-0.108
-0.106
-0.105
-0.104
-0.101
-0.1
-0.099
-0.098
-0.097
-0.097
-0.096
-0.094
-0.093
-0.092
-0.091
-0.09
-0.09
-0.089
-0.089
-0.088
-0.087
-0.087
-0.087
-0.087
-0.087
-0.087
-0.086
-0.084
-0.082
-0.08
-0.079
-0.078
-0.078
-0.079
-0.076
-0.069
-0.059
-0.046
-0.03
-0.013
0.003
0.018
0.03
0.04
0.048
0.053
0.055
0.054
0.051
0.046
0.038
0.027
0.013
-0.003
-0.02
-0.037
-0.051
-0.061
-0.069
-0.073
-0.075
-0.077
-0.077
-0.077
-0.076
-0.075
-0.074
-0.073
-0.072
-0.072
-0.072
-0.072
-0.072
-0.073
-0.072
-0.071
-0.07
-0.076
-0.085
-0.078
-0.046
0.008
0.088
0.193
0.356
0.475
0.588
0.696
0.792
0.8
0.807
0.764
0.674
0.549
0.411
0.272
0.137
0.01
-0.093
-0.166
-0.208
-0.213
-0.191
-0.166
-0.148
-0.137
-0.133
-0.131
-0.13
-0.129
-0.127
-0.125
-0.125
-0.124
-0.122
-0.121
-0.12
-0.119
-0.115
-0.114
-0.11
-0.102
-0.092
-0.081
-0.063
-0.044
-0.026
-0.009
0.008
0.025
0.045
0.065
0.084
0.103
0.121
0.137
0.15
0.159
0.165
0.17
0.173
0.175
0.176
0.177
0.176
0.173
0.169
0.164
0.158
0.151
0.143
0.133
0.122
0.107
0.089
0.067
0.044
0.023
0.004
-0.015
-0.034
-0.05
-0.065
-0.081
-0.099
-0.116
-0.128
-0.137
-0.142
-0.142
-0.141
-0.139
-0.138
-0.137
-0.135
-0.134
-0.134
-0.133
-0.131
-0.131
-0.13
-0.127
-0.126
-0.126
-0.125
-0.125
-0.124
-0.124
-0.122
-0.12
-0.119
-0.118
-0.115
-0.114
-0.113
-0.112
-0.112
-0.111
-0.111
-0.11
-0.108
-0.107
-0.107
-0.106
-0.105
-0.105
-0.104
-0.103
-0.101
-0.101
-0.101
-0.1
-0.099
-0.098
-0.098
-0.097
-0.096
-0.096
-0.096
-0.095
-0.093
-0.092
-0.088
-0.081
-0.07
-0.056
-0.039
-0.022
-0.005
0.01
0.025
0.037
0.044
0.049
0.052
0.052
0.049
0.044
0.036
0.023
0.008
-0.007
-0.029
-0.047
-0.062
-0.072
-0.08
-0.078
-0.08
-0.079
-0.079
-0.08
-0.079
-0.079
-0.078
-0.078
-0.077
-0.077
-0.077
-0.077
-0.077
-0.077
-0.076
-0.074
-0.073
-0.077
-0.085
-0.078
-0.048
0.007
0.093
0.204
0.365
0.475
0.587
0.701
0.799
0.803
0.807
0.761
0.663
0.531
0.4
0.271
0.139
0.007
-0.102
-0.173
-0.211
-0.213
-0.189
-0.162
-0.142
-0.129
-0.124
-0.123
-0.123
-0.123
-0.124
-0.125
-0.122
-0.12
-0.118
-0.116
-0.115
-0.114
-0.108
-0.106
-0.102
-0.093
-0.081
-0.071
-0.054
-0.037
-0.019
-0.001
0.016
0.034
0.052
0.071
0.09
0.109
0.126
0.14
0.152
0.16
0.167
0.171
0.174
0.176
0.178
0.178
0.178
0.176
0.171
0.166
0.16
0.153
0.146
0.137
0.125
0.11
0.092
0.073
0.052
0.031
0.011
-0.008
-0.025
-0.041
-0.058
-0.076
-0.093
-0.108
-0.12
-0.128
-0.133
-0.134
-0.133
-0.131
-0.13
-0.128
-0.126
-0.124
-0.122
-0.121
-0.117
-0.117
-0.117
-0.115
-0.114
-0.115
-0.113
-0.111
-0.109
-0.107
-0.106
-0.105
-0.104
-0.104
-0.103
-0.102
-0.101
-0.1
-0.099
-0.098
-0.097
-0.095
-0.093
-0.092
-0.09
-0.089
-0.088
-0.088
-0.088
-0.087
-0.083
-0.082
-0.08
-0.078
-0.076
-0.078
-0.078
-0.077
-0.077
-0.076
-0.075
-0.074
-0.074
-0.074
-0.071
-0.064
-0.053
-0.039
-0.021
-0.003
0.015
0.03
0.042
0.053
0.061
0.065
0.067
0.065
0.061
0.054
0.045
0.033
0.019
0.004
-0.018
-0.035
-0.05
-0.06
-0.067
-0.067
-0.068
-0.068
-0.069
-0.069
-0.068
-0.068
-0.067
-0.065
-0.064
-0.063
-0.062
-0.06
-0.059
-0.058
-0.057
-0.056
-0.057
-0.064
-0.074
-0.065
-0.032
0.023
0.106
0.214
0.374
0.491
0.603
0.71
0.804
0.813
0.816
0.771
0.678
0.55
0.411
0.272
0.138
0.012
-0.089
-0.161
-0.199
-0.202
-0.178
-0.153
-0.135
-0.124
-0.12
-0.119
-0.118
-0.116
-0.113
-0.112
-0.112
-0.111
-0.11
-0.11
-0.109
-0.107
-0.106
-0.104
-0.1
-0.092
-0.082
-0.067
-0.049
-0.03
-0.012
0.005
0.021
0.039
0.059
0.078
0.098
0.116
0.134
0.149
0.161
0.168
0.174
0.178
0.182
0.184
0.185
0.184
0.183
0.179
0.175
0.171
0.165
0.158
0.15
0.139
0.126
0.111
0.092
0.071
0.05
0.03
0.011
-0.008
-0.026
-0.043
-0.059
-0.076
-0.095
-0.112
-0.124
-0.132
-0.137
-0.137
-0.136
-0.135
-0.133
-0.131
-0.129
-0.128
-0.127
-0.125
-0.126
-0.125
-0.125
-0.123
-0.122
-0.12
-0.119
-0.117
-0.116
-0.116
-0.115
-0.114
-0.113
-0.111
-0.11
-0.108
-0.107
-0.107
-0.106
-0.104
-0.103
-0.102
-0.1
-0.099
-0.099
-0.099
-0.098
-0.098
-0.098
-0.098
-0.098
-0.098
-0.097
-0.096
-0.096
-0.094
-0.093
-0.092
-0.091
-0.09
-0.089
-0.087
-0.085
-0.085
-0.081
-0.074
-0.063
-0.049
-0.032
-0.015
0.001
0.017
0.03
0.04
0.048
0.051
0.053
0.051
0.048
0.043
0.035
0.023
0.008
-0.007
-0.022
-0.039
-0.053
-0.064
-0.072
-0.079
-0.082
-0.083
-0.084
-0.085
-0.085
-0.084
-0.084
-0.084
-0.083
-0.083
-0.083
-0.082
-0.081
-0.081
-0.081
-0.08
-0.081
-0.087
-0.096
-0.086
-0.052
0.007
0.099
0.212
0.373
0.483
0.596
0.71
0.807
0.805
0.806
0.757
0.656
0.523
0.392
0.262
0.127
-0.008
-0.113
-0.182
-0.216
-0.217
-0.191
-0.166
-0.148
-0.138
-0.134
-0.133
-0.132
-0.131
-0.129
-0.128
-0.127
-0.125
-0.124
-0.123
-0.123
-0.121
-0.119
-0.118
-0.113
-0.105
-0.092
-0.076
-0.059
-0.041
-0.023
-0.006
0.011
0.028
0.046
0.065
0.086
0.107
0.125
0.139
0.151
0.16
0.166
0.169
0.172
0.174
0.175
0.175
0.175
0.172
0.168
0.162
0.156
0.149
0.141
0.131
0.118
0.102
0.085
0.065
0.044
0.022
0.001
-0.017
-0.033
-0.049
-0.066
-0.082
-0.099
-0.115
-0.128
-0.138
-0.144
-0.146
-0.146
-0.145
-0.144
-0.143
-0.141
-0.139
-0.137
-0.136
-0.134
-0.133
-0.131
-0.129
-0.127
-0.126
-0.125
-0.124
-0.124
-0.124
-0.123
-0.122
-0.121
-0.12
-0.12
-0.118
-0.117
-0.115
-0.112
-0.107
-0.103
-0.102
-0.099
-0.097
-0.097
-0.096
-0.095
-0.094
-0.093
-0.092
-0.092
-0.091
-0.09
-0.088
-0.087
-0.084
-0.083
-0.081
-0.081
-0.081
-0.08
-0.08
-0.079
-0.078
-0.074
-0.066
-0.056
-0.043
-0.026
-0.008
0.009
0.024
0.037
0.047
0.054
0.058
0.06
0.059
0.056
0.051
0.042
0.03
0.016
0.001
-0.017
-0.035
-0.049
-0.059
-0.067
-0.072
-0.074
-0.074
-0.074
-0.075
-0.075
-0.074
-0.073
-0.072
-0.071
-0.071
-0.071
-0.07
-0.068
-0.067
-0.066
-0.065
-0.066
-0.075
-0.083
-0.073
-0.038
0.019
0.104
0.216
0.374
0.491
0.603
0.71
0.804
0.816
0.817
0.769
0.674
0.543
0.403
0.263
0.131
0.005
-0.097
-0.169
-0.206
-0.207
-0.182
-0.156
-0.138
-0.127
-0.123
-0.123
-0.123
-0.122
-0.12
-0.118
-0.117
-0.115
-0.113
-0.113
-0.112
-0.111
-0.104
-0.102
-0.098
-0.09
-0.079
-0.069
-0.05
-0.031
-0.014
0.004
0.021
0.04
0.06
0.079
0.098
0.117
0.135
0.15
0.163
0.172
0.178
0.182
0.186
0.188
0.188
0.188
0.188
0.185
0.181
0.176
0.172
0.165
0.157
0.146
0.134
0.118
0.099
0.078
0.058
0.038
0.019
0.001
-0.016
-0.033
-0.047
-0.064
-0.082
-0.099
-0.111
-0.119
-0.125
-0.128
-0.129
-0.129
-0.129
-0.128
-0.126
-0.124
-0.122
-0.119
-0.117
-0.116
-0.115
-0.114
-0.113
-0.113
-0.112
-0.111
-0.109
-0.108
-0.107
-0.106
-0.105
-0.105
-0.103
-0.102
-0.101
-0.099
-0.097
-0.096
-0.094
-0.093
-0.091
-0.09
-0.09
-0.089
-0.089
-0.087
-0.087
-0.086
-0.084
-0.083
-0.083
-0.081
-0.086
-0.088
-0.087
-0.085
-0.084
-0.076
-0.074
-0.073
-0.073
-0.073
-0.071
-0.064
-0.053
-0.038
-0.019
-0.001
0.015
0.031
0.044
0.052
0.059
0.063
0.064
0.063
0.059
0.052
0.043
0.031
0.016
0.001
-0.015
-0.032
-0.046
-0.057
-0.065
-0.069
-0.07
-0.069
-0.069
-0.069
-0.069
-0.068
-0.068
-0.068
-0.067
-0.066
-0.066
-0.065
-0.066
-0.065
-0.065
-0.065
-0.066
-0.074
-0.082
-0.072
-0.038
0.023
0.114
0.224
0.38
0.489
0.601
0.713
0.804
0.803
0.801
0.749
0.647
0.517
0.387
0.257
0.123
-0.009
-0.11
-0.176
-0.208
-0.206
-0.18
-0.155
-0.138
-0.129
-0.125
-0.123
-0.121
-0.119
-0.118
-0.117
-0.116
-0.115
-0.121
-0.121
-0.121
-0.12
-0.119
-0.11
-0.105
-0.097
-0.085
-0.07
-0.052
-0.034
-0.017
-0.001
0.015
0.031
0.049
0.069
0.091
0.11
0.127
0.141
0.153
0.161
0.167
0.171
0.173
0.175
0.176
0.176
0.174
0.172
0.167
0.161
0.155
0.149
0.14
0.129
0.116
0.101
0.084
0.064
0.043
0.021
0.001
-0.017
-0.034
-0.05
-0.067
-0.085
-0.102
-0.117
-0.128
-0.137
-0.14
-0.141
-0.14
-0.138
-0.137
-0.137
-0.135
-0.133
-0.132
-0.131
-0.133
-0.132
-0.131
-0.13
-0.128
-0.124
-0.122
-0.121
-0.12
-0.118
-0.117
-0.116
-0.115
-0.114
-0.113
-0.111
-0.111
-0.11
-0.109
-0.109
-0.109
-0.108
-0.107
-0.106
-0.105
-0.104
-0.103
-0.102
-0.102
-0.101
-0.102
-0.102
-0.101
-0.1
-0.099
-0.096
-0.094
-0.093
-0.093
-0.092
-0.091
-0.09
-0.089
-0.088
-0.083
-0.076
-0.066
-0.052
-0.036
-0.018
-0.001
0.014
0.026
0.036
0.044
0.048
0.049
0.047
0.043
0.037
0.019
0.007
-0.007
-0.022
-0.038
-0.045
-0.058
-0.067
-0.075
-0.081
-0.082
-0.083
-0.084
-0.084
-0.082
-0.081
-0.08
-0.079
-0.078
-0.077
-0.076
-0.075
-0.074
-0.072
-0.071
-0.07
-0.071
-0.078
-0.087
-0.075
0
0.058
0.143
0.255
0.373
0.443
0.551
0.657
0.748
0.797
0.797
0.748
0.651
0.519
0.379
0.243
0.113
-0.011
-0.11
-0.177
-0.21
-0.208
-0.183
-0.158
-0.141
-0.132
-0.128
-0.127
-0.127
-0.126
-0.124
-0.123
-0.122
-0.12
-0.113
-0.112
-0.111
-0.109
-0.107
-0.111
-0.107
-0.1
-0.09
-0.076
-0.057
-0.037
-0.019
-0.002
0.016
0.034
0.053
0.071
0.09
0.109
0.126
0.141
0.152
0.161
0.167
0.171
0.175
0.178
0.179
0.179
0.179
0.176
0.172
0.167
0.162
0.153
0.145
0.135
0.122
0.107
0.088
0.067
0.047
0.028
0.009
-0.01
-0.027
-0.043
-0.06
-0.077
-0.095
-0.111
-0.122
-0.13
-0.134
-0.134
-0.133
-0.132
-0.13
-0.129
-0.126
-0.125
-0.124
-0.123
-0.122
-0.121
-0.12
-0.118
-0.116
-0.116
-0.114
-0.112
-0.11
-0.11
-0.108
-0.107
-0.106
-0.105
-0.104
-0.102
-0.102
-0.101
-0.099
-0.099
-0.098
-0.096
-0.094
-0.094
-0.093
-0.091
-0.09
-0.089
-0.088
-0.087
-0.08
-0.079
-0.078
-0.076
-0.074
-0.079
-0.079
-0.079
-0.079
-0.079
-0.079
-0.078
-0.077
-0.076
-0.071
-0.063
-0.052
-0.038
-0.022
-0.005
0.01
0.025
0.039
0.049
0.056
0.059
0.061
0.06
0.057
0.051
0.041
0.028
0.014
-0.002
-0.018
-0.033
-0.047
-0.057
-0.064
-0.067
-0.068
-0.068
-0.069
-0.069
-0.069
-0.068
-0.067
-0.066
-0.064
-0.063
-0.063
-0.063
-0.062
-0.062
-0.062
-0.062
-0.063
-0.07
-0.077
-0.065
-0.029
0.033
0.125
0.234
0.345
0.455
0.57
0.683
0.773
0.816
0.812
0.757
0.652
0.521
0.39
0.259
0.122
-0.01
-0.108
-0.172
-0.202
-0.199
-0.173
-0.148
-0.131
-0.122
-0.118
-0.115
-0.114
-0.112
-0.11
-0.108
-0.109
-0.108
-0.107
-0.107
-0.106
-0.105
-0.104
-0.102
-0.098
-0.089
-0.077
-0.061
-0.043
-0.025
-0.007
0.012
0.029
0.046
0.065
0.085
0.105
0.124
0.14
0.154
0.172
0.182
0.188
0.191
0.194
0.189
0.19
0.189
0.189
0.187
0.182
0.176
0.171
0.164
0.156
0.145
0.132
0.116
0.098
0.077
0.056
0.034
0.014
-0.004
-0.021
-0.038
-0.056
-0.072
-0.089
-0.103
-0.114
-0.122
-0.126
-0.127
-0.125
-0.123
-0.122
-0.122
-0.12
-0.12
-0.119
-0.118
-0.116
-0.115
-0.114
-0.112
-0.11
-0.108
-0.107
-0.106
-0.105
-0.104
-0.103
-0.102
-0.101
-0.1
-0.098
-0.098
-0.097
-0.096
-0.095
-0.093
-0.092
-0.092
-0.091
-0.091
-0.091
-0.089
-0.087
-0.086
-0.084
-0.084
-0.089
-0.089
-0.089
-0.088
-0.087
-0.08
-0.079
-0.078
-0.077
-0.076
-0.076
-0.075
-0.075
-0.075
-0.071
-0.063
-0.052
-0.039
-0.022
-0.003
0.013
0.026
0.039
0.049
0.055
0.059
0.061
0.06
0.056
0.049
0.039
0.026
0.011
-0.005
-0.024
-0.04
-0.052
-0.062
-0.07
-0.072
-0.074
-0.075
-0.075
-0.076
-0.075
-0.075
-0.075
-0.074
-0.072
-0.071
-0.07
-0.069
-0.068
-0.068
-0.068
-0.067
-0.069
-0.076
-0.083
-0.07
-0.035
0.024
0.111
0.225
0.344
0.457
0.564
0.67
0.76
0.805
0.801
0.747
0.646
0.511
0.37
0.236
0.107
-0.014
-0.112
-0.178
-0.209
-0.205
-0.179
-0.154
-0.137
-0.128
-0.125
-0.124
-0.123
-0.122
-0.12
-0.119
-0.118
-0.117
-0.114
-0.114
-0.113
-0.112
-0.111
-0.112
-0.108
-0.1
-0.089
-0.074
-0.054
-0.035
-0.018
-0.001
0.016
0.034
0.054
0.072
0.091
0.11
0.129
0.143
0.153
0.162
0.167
0.171
0.174
0.176
0.177
0.177
0.171
0.167
0.163
0.158
0.153
0.15
0.142
0.132
0.119
0.103
0.083
0.061
0.04
0.019
-0
-0.02
-0.037
-0.053
-0.068
-0.086
-0.105
-0.119
-0.13
-0.137
-0.14
-0.139
-0.138
-0.137
-0.137
-0.136
-0.135
-0.135
-0.134
-0.132
-0.13
-0.128
-0.126
-0.125
-0.124
-0.123
-0.122
-0.121
-0.12
-0.119
-0.118
-0.118
-0.118
-0.117
-0.117
-0.116
-0.115
-0.113
-0.111
-0.109
-0.108
-0.107
-0.106
-0.105
-0.105
-0.105
-0.1
-0.099
-0.098
-0.096
-0.094
-0.096
-0.095
-0.093
-0.093
-0.092
-0.091
-0.089
-0.087
-0.087
-0.086
-0.085
-0.086
-0.086
-0.082
-0.073
-0.062
-0.047
-0.031
-0.015
0.001
0.016
0.029
0.04
0.046
0.05
0.052
0.05
0.046
0.04
0.031
0.018
0.004
-0.012
-0.028
-0.046
-0.06
-0.071
-0.078
-0.082
-0.083
-0.083
-0.084
-0.085
-0.084
-0.084
-0.083
-0.081
-0.079
-0.078
-0.077
-0.076
-0.076
-0.075
-0.074
-0.073
-0.075
-0.083
-0.089
-0.075
-0.037
0.029
0.122
0.231
0.341
0.452
0.568
0.68
0.767
0.808
0.8
0.741
0.635
0.505
0.375
0.242
0.103
-0.028
-0.123
-0.185
-0.214
-0.209
-0.181
-0.158
-0.142
-0.132
-0.128
-0.127
-0.125
-0.125
-0.124
-0.123
-0.121
-0.12
-0.12
-0.119
-0.117
-0.115
-0.114
-0.11
-0.105
-0.097
-0.085
-0.069
-0.05
-0.031
-0.012
0.005
0.022
0.039
0.057
0.077
0.098
0.116
0.133
0.147
0.159
0.168
0.173
0.177
0.18
0.183
0.185
0.185
0.184
0.18
0.175
0.17
0.165
0.159
0.151
0.14
0.127
0.111
0.093
0.073
0.051
0.03
0.01
-0.008
-0.025
-0.042
-0.06
-0.077
-0.094
-0.108
-0.12
-0.127
-0.13
-0.131
-0.129
-0.127
-0.127
-0.125
-0.123
-0.122
-0.122
-0.119
-0.118
-0.117
-0.116
-0.114
-0.111
-0.11
-0.109
-0.107
-0.106
-0.106
-0.106
-0.105
-0.104
-0.103
-0.101
-0.1
-0.099
-0.098
-0.097
-0.096
-0.095
-0.095
-0.093
-0.093
-0.093
-0.092
-0.09
-0.088
-0.087
-0.085
-0.091
-0.09
-0.09
-0.088
-0.087
-0.079
-0.078
-0.077
-0.076
-0.075
-0.074
-0.073
-0.073
-0.072
-0.068
-0.06
-0.05
-0.036
-0.017
0.001
0.018
0.033
0.045
0.055
0.062
0.065
0.066
0.065
0.061
0.054
0.031
0.019
0.005
-0.011
-0.029
-0.03
-0.043
-0.053
-0.061
-0.064
-0.066
-0.066
-0.066
-0.067
-0.067
-0.067
-0.067
-0.066
-0.065
-0.064
-0.063
-0.062
-0.061
-0.061
-0.06
-0.06
-0.061
-0.068
-0.073
-0.058
-0.02
0.041
0.131
0.248
0.367
0.478
0.585
0.691
0.779
0.82
0.811
0.755
0.652
0.515
0.374
0.241
0.113
-0.011
-0.11
-0.175
-0.203
-0.197
-0.171
-0.145
-0.128
-0.12
-0.117
-0.117
-0.116
-0.114
-0.112
-0.111
-0.109
-0.108
-0.108
-0.107
-0.107
-0.105
-0.104
-0.102
-0.097
-0.089
-0.077
-0.061
-0.042
-0.024
-0.007
0.01
0.028
0.047
0.065
0.084
0.103
0.123
0.14
0.154
0.164
0.171
0.176
0.18
0.183
0.185
0.186
0.186
0.178
0.174
0.169
0.165
0.159
0.159
0.151
0.141
0.127
0.111
0.091
0.07
0.05
0.029
0.009
-0.011
-0.028
-0.044
-0.06
-0.078
-0.096
-0.111
-0.121
-0.128
-0.131
-0.132
-0.13
-0.129
-0.129
-0.127
-0.125
-0.125
-0.125
-0.124
-0.122
-0.121
-0.12
-0.118
-0.116
-0.115
-0.114
-0.113
-0.112
-0.112
-0.111
-0.11
-0.11
-0.11
-0.108
-0.107
-0.105
-0.103
-0.102
-0.1
-0.1
-0.099
-0.098
-0.097
-0.096
-0.096
-0.094
-0.094
-0.094
-0.093
-0.085
-0.085
-0.085
-0.083
-0.082
-0.089
-0.088
-0.087
-0.087
-0.086
-0.084
-0.083
-0.083
-0.081
-0.077
-0.069
-0.057
-0.042
-0.026
-0.01
0.006
0.021
0.033
0.042
0.049
0.053
0.054
0.052
0.048
0.041
0.031
0.018
0.004
-0.012
-0.028
-0.045
-0.058
-0.068
-0.075
-0.078
-0.079
-0.08
-0.08
-0.08
-0.08
-0.079
-0.078
-0.078
-0.077
-0.077
-0.076
-0.076
-0.075
-0.074
-0.074
-0.073
-0.075
-0.083
-0.089
-0.074
-0.035
0.031
0.125
0.235
0.345
0.459
0.576
0.687
0.771
0.808
0.796
0.733
0.625
0.494
0.363
0.228
0.088
-0.039
-0.131
-0.19
-0.217
-0.21
-0.182
-0.159
-0.144
-0.134
-0.131
-0.13
-0.129
-0.128
-0.126
-0.124
-0.123
-0.122
-0.119
-0.117
-0.115
-0.114
-0.112
-0.111
-0.107
-0.098
-0.085
-0.07
-0.052
-0.034
-0.016
0.002
0.018
0.036
0.055
0.075
0.095
0.114
0.129
0.143
0.154
0.162
0.162
0.166
0.169
0.171
0.173
0.178
0.177
0.173
0.168
0.162
0.146
0.14
0.132
0.121
0.108
0.103
0.085
0.064
0.042
0.021
0.001
-0.017
-0.034
-0.052
-0.07
-0.087
-0.104
-0.119
-0.13
-0.136
-0.139
-0.139
-0.137
-0.136
-0.135
-0.133
-0.132
-0.131
-0.13
-0.129
-0.127
-0.126
-0.125
-0.124
-0.122
-0.12
-0.119
-0.118
-0.117
-0.117
-0.116
-0.114
-0.113
-0.112
-0.11
-0.109
-0.109
-0.108
-0.106
-0.105
-0.104
-0.103
-0.101
-0.099
-0.098
-0.096
-0.094
-0.093
-0.093
-0.092
-0.091
-0.09
-0.09
-0.089
-0.088
-0.087
-0.086
-0.085
-0.084
-0.084
-0.083
-0.083
-0.082
-0.081
-0.076
-0.069
-0.058
-0.043
-0.025
-0.007
0.009
0.022
0.034
0.044
0.051
0.054
0.055
0.055
0.051
0.044
0.035
0.024
0.01
-0.007
-0.025
-0.04
-0.053
-0.062
-0.069
-0.072
-0.073
-0.073
-0.074
-0.075
-0.074
-0.073
-0.073
-0.072
-0.071
-0.07
-0.069
-0.068
-0.067
-0.066
-0.065
-0.065
-0.067
-0.076
-0.081
-0.065
0.012
0.074
0.167
0.286
0.405
0.475
0.583
0.69
0.778
0.817
0.806
0.746
0.638
0.498
0.359
0.228
0.1
-0.023
-0.101
-0.164
-0.19
-0.182
-0.155
-0.152
-0.136
-0.127
-0.125
-0.124
-0.122
-0.119
-0.117
-0.115
-0.114
-0.112
-0.111
-0.11
-0.109
-0.108
-0.098
-0.096
-0.092
-0.082
-0.07
-0.063
-0.043
-0.025
-0.008
0.008
0.025
0.043
0.061
0.08
0.1
0.121
0.14
0.155
0.166
0.173
0.178
0.18
0.183
0.185
0.186
0.186
0.178
0.175
0.17
0.165
0.159
0.159
0.152
0.142
0.129
0.113
0.093
0.072
0.051
0.031
0.01
-0.009
-0.026
-0.042
-0.059
-0.077
-0.095
-0.109
-0.118
-0.124
-0.127
-0.126
-0.125
-0.125
-0.125
-0.124
-0.123
-0.122
-0.121
-0.119
-0.118
-0.116
-0.116
-0.116
-0.114
-0.112
-0.111
-0.109
-0.107
-0.108
-0.107
-0.105
-0.104
-0.103
-0.101
-0.101
-0.101
-0.101
-0.099
-0.097
-0.096
-0.094
-0.092
-0.092
-0.091
-0.09
-0.088
-0.088
-0.087
-0.085
-0.083
-0.083
-0.082
-0.081
-0.081
-0.081
-0.082
-0.082
-0.081
-0.081
-0.08
-0.078
-0.078
-0.076
-0.07
-0.061
-0.049
-0.034
-0.018
-0.001
0.015
0.031
0.044
0.054
0.06
0.064
0.065
0.064
0.06
0.053
0.042
0.029
0.014
-0.001
-0.017
-0.034
-0.048
-0.057
-0.065
-0.069
-0.07
-0.071
-0.073
-0.073
-0.072
-0.071
-0.069
-0.068
-0.066
-0.065
-0.065
-0.064
-0.063
-0.063
-0.063
-0.062
-0.064
-0.072
-0.076
-0.059
0.034
0.102
0.196
0.306
0.416
0.477
0.595
0.704
0.783
0.817
0.8
0.732
0.622
0.491
0.361
0.225
0.086
-0.039
-0.128
-0.186
-0.211
-0.203
-0.176
-0.155
-0.14
-0.132
-0.128
-0.126
-0.125
-0.124
-0.121
-0.12
-0.119
-0.118
-0.116
-0.114
-0.113
-0.112
-0.11
-0.108
-0.102
-0.092
-0.08
-0.065
-0.047
-0.029
-0.011
0.006
0.023
0.04
0.06
0.08
0.099
0.118
0.134
0.148
0.16
0.168
0.173
0.177
0.18
0.182
0.182
0.181
0.184
0.179
0.173
0.168
0.162
0.15
0.141
0.129
0.115
0.099
0.08
0.06
0.039
0.018
-0.001
-0.018
-0.034
-0.051
-0.068
-0.085
-0.102
-0.117
-0.127
-0.134
-0.137
-0.137
-0.135
-0.136
-0.135
-0.133
-0.13
-0.128
-0.126
-0.125
-0.123
-0.125
-0.124
-0.122
-0.121
-0.12
-0.119
-0.118
-0.117
-0.117
-0.115
-0.114
-0.112
-0.111
-0.11
-0.109
-0.108
-0.107
-0.106
-0.105
-0.104
-0.104
-0.103
-0.103
-0.104
-0.103
-0.101
-0.1
-0.1
-0.099
-0.098
-0.097
-0.097
-0.096
-0.093
-0.092
-0.09
-0.088
-0.087
-0.087
-0.086
-0.085
-0.085
-0.084
-0.079
-0.072
-0.061
-0.047
-0.029
-0.012
0.003
0.017
0.03
0.04
0.046
0.049
0.052
0.052
0.048
0.042
0.018
0.005
-0.01
-0.027
-0.044
-0.044
-0.057
-0.066
-0.074
-0.079
-0.08
-0.081
-0.083
-0.083
-0.083
-0.082
-0.083
-0.083
-0.082
-0.081
-0.08
-0.079
-0.077
-0.076
-0.076
-0.075
-0.077
-0.086
-0.09
-0.072
-0.033
0.031
0.128
0.246
0.364
0.474
0.581
0.689
0.775
0.811
0.796
0.733
0.62
0.479
0.34
0.211
0.083
-0.038
-0.133
-0.193
-0.216
-0.207
-0.179
-0.154
-0.138
-0.131
-0.128
-0.127
-0.126
-0.125
-0.124
-0.123
-0.123
-0.121
-0.118
-0.116
-0.114
-0.113
-0.112
-0.111
-0.106
-0.098
-0.086
-0.069
-0.05
-0.032
-0.016
0.001
0.018
0.036
0.055
0.073
0.093
0.114
0.132
0.146
0.157
0.165
0.171
0.175
0.178
0.18
0.18
0.179
0.168
0.165
0.16
0.155
0.149
0.15
0.14
0.129
0.116
0.099
0.08
0.06
0.04
0.02
0
-0.018
-0.035
-0.051
-0.068
-0.086
-0.104
-0.119
-0.128
-0.135
-0.137
-0.137
-0.136
-0.135
-0.133
-0.132
-0.131
-0.129
-0.127
-0.124
-0.122
-0.12
-0.119
-0.118
-0.117
-0.116
-0.114
-0.113
-0.112
-0.112
-0.11
-0.109
-0.108
-0.107
-0.104
-0.103
-0.102
-0.1
-0.098
-0.097
-0.097
-0.097
-0.096
-0.095
-0.095
-0.093
-0.091
-0.09
-0.089
-0.087
-0.086
-0.085
-0.085
-0.085
-0.084
-0.083
-0.083
-0.083
-0.082
-0.082
-0.082
-0.081
-0.08
-0.077
-0.071
-0.062
-0.05
-0.036
-0.02
-0.003
0.014
0.029
0.042
0.052
0.058
0.062
0.063
0.062
0.057
0.05
0.038
0.025
0.01
-0.004
-0.021
-0.036
-0.05
-0.06
-0.067
-0.071
-0.071
-0.071
-0.071
-0.071
-0.07
-0.069
-0.068
-0.067
-0.071
-0.07
-0.07
-0.07
-0.07
-0.065
-0.064
-0.064
-0.066
-0.074
-0.076
-0.058
0.034
0.105
0.201
0.312
0.424
0.49
0.606
0.713
0.791
0.822
0.804
0.735
0.624
0.493
0.362
0.224
0.086
-0.036
-0.124
-0.18
-0.202
-0.192
-0.165
-0.143
-0.128
-0.12
-0.117
-0.115
-0.114
-0.112
-0.111
-0.11
-0.11
-0.11
-0.109
-0.108
-0.108
-0.107
-0.105
-0.103
-0.097
-0.087
-0.074
-0.059
-0.04
-0.021
-0.002
0.015
0.032
0.049
0.069
0.089
0.108
0.127
0.143
0.157
0.168
0.176
0.181
0.184
0.187
0.188
0.188
0.187
0.186
0.183
0.179
0.174
0.168
0.16
0.151
0.14
0.126
0.11
0.091
0.068
0.046
0.025
0.007
-0.01
-0.026
-0.043
-0.06
-0.077
-0.095
-0.11
-0.121
-0.127
-0.13
-0.13
-0.128
-0.127
-0.126
-0.125
-0.12
-0.119
-0.118
-0.116
-0.115
-0.119
-0.117
-0.116
-0.114
-0.113
-0.112
-0.111
-0.11
-0.108
-0.107
-0.105
-0.105
-0.104
-0.104
-0.104
-0.103
-0.102
-0.1
-0.099
-0.099
-0.098
-0.097
-0.096
-0.096
-0.094
-0.089
-0.088
-0.088
-0.087
-0.087
-0.09
-0.089
-0.089
-0.088
-0.087
-0.086
-0.086
-0.085
-0.084
-0.083
-0.081
-0.08
-0.078
-0.073
-0.066
-0.054
-0.039
-0.021
-0.004
0.011
0.024
0.036
0.046
0.052
0.055
0.056
0.054
0.05
0.042
0.019
0.007
-0.009
-0.026
-0.042
-0.044
-0.056
-0.065
-0.073
-0.076
-0.077
-0.077
-0.078
-0.077
-0.076
-0.076
-0.076
-0.075
-0.075
-0.074
-0.074
-0.073
-0.071
-0.07
-0.069
-0.068
-0.07
-0.079
-0.082
-0.064
0.018
0.084
0.184
0.304
0.419
0.484
0.592
0.7
0.783
0.816
0.798
0.731
0.613
0.471
0.334
0.204
0.075
-0.046
-0.14
-0.196
-0.216
-0.203
-0.175
-0.153
-0.139
-0.133
-0.131
-0.13
-0.129
-0.127
-0.125
-0.124
-0.124
-0.123
-0.123
-0.124
-0.124
-0.123
-0.121
-0.119
-0.113
-0.103
-0.089
-0.072
-0.053
-0.036
-0.019
-0.001
0.017
0.036
0.054
0.073
0.093
0.113
0.129
0.142
0.152
0.159
0.164
0.168
0.171
0.173
0.175
0.174
0.164
0.16
0.155
0.15
0.144
0.147
0.139
0.129
0.114
0.097
0.076
0.055
0.035
0.015
-0.006
-0.024
-0.041
-0.058
-0.075
-0.094
-0.112
-0.125
-0.134
-0.14
-0.143
-0.143
-0.142
-0.14
-0.139
-0.137
-0.139
-0.138
-0.137
-0.135
-0.134
-0.13
-0.129
-0.128
-0.127
-0.126
-0.124
-0.122
-0.121
-0.119
-0.117
-0.116
-0.115
-0.114
-0.113
-0.113
-0.112
-0.111
-0.109
-0.108
-0.106
-0.105
-0.103
-0.102
-0.101
-0.099
-0.098
-0.098
-0.097
-0.096
-0.096
-0.096
-0.094
-0.092
-0.092
-0.091
-0.09
-0.089
-0.088
-0.087
-0.086
-0.086
-0.086
-0.084
-0.078
-0.068
-0.055
-0.04
-0.018
-0.001
0.014
0.027
0.038
0.041
0.046
0.049
0.051
0.05
0.045
0.037
0.026
0.012
-0.003
-0.017
-0.033
-0.048
-0.061
-0.069
-0.074
-0.076
-0.076
-0.076
-0.075
-0.076
-0.076
-0.077
-0.077
-0.078
-0.077
-0.076
-0.075
-0.074
-0.072
-0.071
-0.07
-0.07
-0.074
-0.083
-0.083
-0.06
0.037
0.112
0.213
0.324
0.438
0.506
0.62
0.723
0.789
0.809
0.779
0.701
0.583
0.453
0.321
0.183
0.045
-0.07
-0.151
-0.199
-0.214
-0.197
-0.17
-0.15
-0.137
-0.131
-0.129
-0.128
-0.128
-0.126
-0.125
-0.124
-0.124
-0.123
-0.122
-0.121
-0.119
-0.117
-0.115
-0.111
-0.103
-0.092
-0.078
-0.061
-0.043
-0.024
-0.006
0.011
0.028
0.046
0.066
0.086
0.105
0.122
0.138
0.151
0.161
0.168
0.173
0.175
0.178
0.18
0.181
0.18
0.178
0.174
0.169
0.165
0.16
0.153
0.143
0.131
0.117
0.1
0.081
0.059
0.037
0.017
-0.002
-0.019
-0.036
-0.053
-0.069
-0.086
-0.102
-0.116
-0.126
-0.131
-0.132
-0.132
-0.13
-0.128
-0.128
-0.128
-0.12
-0.119
-0.118
-0.115
-0.112
-0.117
-0.116
-0.114
-0.113
-0.112
-0.11
-0.107
-0.106
-0.105
-0.104
-0.103
-0.102
-0.102
-0.101
-0.1
-0.099
-0.097
-0.094
-0.093
-0.093
-0.093
-0.093
-0.092
-0.092
-0.091
-0.084
-0.083
-0.083
-0.082
-0.08
-0.085
-0.084
-0.082
-0.081
-0.08
-0.079
-0.078
-0.077
-0.077
-0.076
-0.076
-0.075
-0.074
-0.068
-0.06
-0.049
-0.033
-0.014
0.004
0.019
0.034
0.046
0.055
0.06
0.063
0.063
0.061
0.057
0.05
0.041
0.029
0.014
-0.004
-0.03
-0.045
-0.059
-0.069
-0.075
-0.069
-0.069
-0.069
-0.069
-0.07
-0.069
-0.068
-0.067
-0.066
-0.064
-0.064
-0.064
-0.064
-0.063
-0.062
-0.062
-0.062
-0.064
-0.073
-0.075
-0.056
0.029
0.098
0.199
0.319
0.434
0.498
0.606
0.715
0.796
0.824
0.803
0.732
0.613
0.472
0.337
0.208
0.079
-0.043
-0.135
-0.189
-0.207
-0.193
-0.164
-0.14
-0.126
-0.12
-0.118
-0.117
-0.118
-0.117
-0.123
-0.123
-0.122
-0.12
-0.12
-0.111
-0.11
-0.108
-0.1
-0.097
-0.09
-0.081
-0.068
-0.057
-0.038
-0.021
-0.005
0.012
0.029
0.048
0.066
0.085
0.106
0.126
0.142
0.156
0.166
0.172
0.177
0.18
0.182
0.184
0.184
0.184
0.182
0.179
0.173
0.167
0.161
0.153
0.143
0.133
0.119
0.101
0.081
0.061
0.042
0.022
0.002
-0.016
-0.033
-0.05
-0.067
-0.086
-0.103
-0.116
-0.126
-0.132
-0.134
-0.133
-0.131
-0.129
-0.129
-0.128
-0.132
-0.132
-0.132
-0.13
-0.129
-0.124
-0.123
-0.122
-0.122
-0.121
-0.119
-0.119
-0.117
-0.116
-0.114
-0.113
-0.112
-0.111
-0.11
-0.109
-0.107
-0.105
-0.103
-0.101
-0.1
-0.1
-0.099
-0.098
-0.099
-0.098
-0.101
-0.1
-0.099
-0.098
-0.097
-0.092
-0.092
-0.091
-0.09
-0.089
-0.088
-0.087
-0.086
-0.086
-0.086
-0.085
-0.085
-0.083
-0.078
-0.068
-0.056
-0.041
-0.024
-0.007
0.009
0.023
0.034
0.042
0.047
0.05
0.051
0.05
0.046
0.039
0.029
0.016
0.001
-0.015
-0.032
-0.048
-0.062
-0.071
-0.078
-0.081
-0.082
-0.081
-0.081
-0.08
-0.078
-0.077
-0.077
-0.076
-0.076
-0.076
-0.076
-0.075
-0.075
-0.074
-0.073
-0.072
-0.075
-0.084
-0.085
-0.063
0.029
0.102
0.199
0.309
0.421
0.491
0.605
0.708
0.78
0.805
0.781
0.707
0.592
0.461
0.328
0.188
0.051
-0.065
-0.148
-0.2
-0.218
-0.203
-0.176
-0.155
-0.141
-0.135
-0.134
-0.133
-0.131
-0.13
-0.125
-0.123
-0.122
-0.12
-0.117
-0.121
-0.12
-0.119
-0.119
-0.117
-0.11
-0.1
-0.086
-0.068
-0.048
-0.028
-0.01
0.006
0.021
0.038
0.056
0.076
0.096
0.114
0.13
0.144
0.155
0.161
0.166
0.169
0.172
0.174
0.175
0.174
0.172
0.167
0.162
0.156
0.15
0.142
0.134
0.122
0.108
0.093
0.073
0.051
0.03
0.011
-0.008
-0.025
-0.043
-0.06
-0.076
-0.092
-0.108
-0.122
-0.132
-0.139
-0.141
-0.14
-0.138
-0.137
-0.136
-0.134
-0.132
-0.131
-0.13
-0.128
-0.127
-0.126
-0.126
-0.125
-0.122
-0.121
-0.119
-0.118
-0.117
-0.117
-0.116
-0.115
-0.114
-0.113
-0.112
-0.111
-0.109
-0.108
-0.106
-0.106
-0.105
-0.105
-0.104
-0.102
-0.101
-0.098
-0.09
-0.089
-0.089
-0.088
-0.092
-0.097
-0.096
-0.094
-0.094
-0.089
-0.088
-0.087
-0.087
-0.086
-0.084
-0.083
-0.082
-0.08
-0.075
-0.066
-0.055
-0.038
-0.02
-0.003
0.013
0.026
0.038
0.048
0.053
0.055
0.057
0.055
0.05
0.043
0.033
0.019
0.004
-0.013
-0.028
-0.042
-0.054
-0.064
-0.07
-0.074
-0.075
-0.075
-0.075
-0.075
-0.073
-0.073
-0.073
-0.072
-0.072
-0.072
-0.072
-0.072
-0.07
-0.069
-0.069
-0.068
-0.07
-0.08
-0.08
-0.058
0.031
0.101
0.206
0.326
0.439
0.5
0.609
0.717
0.794
0.819
0.794
0.721
0.598
0.456
0.323
0.194
0.064
-0.057
-0.147
-0.198
-0.214
-0.199
-0.164
-0.141
-0.127
-0.12
-0.118
-0.124
-0.122
-0.12
-0.125
-0.123
-0.122
-0.12
-0.118
-0.111
-0.111
-0.109
-0.108
-0.106
-0.1
-0.09
-0.076
-0.059
-0.04
-0.022
-0.005
0.014
0.032
0.051
0.07
0.089
0.109
0.129
0.145
0.158
0.168
0.176
0.181
0.184
0.187
0.188
0.188
0.186
0.185
0.181
0.177
0.171
0.166
0.159
0.151
0.14
0.125
0.107
0.087
0.066
0.045
0.025
0.004
-0.014
-0.031
-0.048
-0.065
-0.083
-0.099
-0.112
-0.121
-0.126
-0.128
-0.128
-0.126
-0.124
-0.123
-0.122
-0.126
-0.125
-0.124
-0.121
-0.12
-0.113
-0.112
-0.111
-0.11
-0.109
-0.108
-0.107
-0.106
-0.105
-0.103
-0.101
-0.1
-0.099
-0.098
-0.098
-0.098
-0.097
-0.096
-0.093
-0.092
-0.091
-0.089
-0.088
-0.088
-0.087
-0.091
-0.09
-0.089
-0.088
-0.087
-0.082
-0.082
-0.082
-0.081
-0.08
-0.079
-0.078
-0.077
-0.076
-0.075
-0.073
-0.072
-0.07
-0.065
-0.057
-0.046
-0.031
-0.013
0.004
0.021
0.036
0.048
0.057
0.062
0.064
0.064
0.062
0.056
0.048
0.037
0.024
0.009
-0.007
-0.023
-0.039
-0.05
-0.058
-0.064
-0.068
-0.069
-0.069
-0.07
-0.069
-0.068
-0.068
-0.068
-0.068
-0.068
-0.067
-0.067
-0.067
-0.066
-0.066
-0.065
-0.064
-0.066
-0.075
-0.075
-0.05
0.042
0.115
0.214
0.325
0.44
0.512
0.625
0.726
0.794
0.815
0.786
0.709
0.592
0.461
0.326
0.186
0.05
-0.063
-0.144
-0.194
-0.209
-0.193
-0.166
-0.145
-0.132
-0.126
-0.124
-0.123
-0.123
-0.122
-0.121
-0.12
-0.119
-0.118
-0.116
-0.115
-0.115
-0.114
-0.112
-0.108
-0.102
-0.091
-0.078
-0.062
-0.043
-0.024
-0.006
0.01
0.027
0.046
0.065
0.084
0.103
0.121
0.136
0.149
0.161
0.168
0.172
0.175
0.178
0.179
0.179
0.179
0.177
0.173
0.168
0.163
0.158
0.151
0.142
0.131
0.117
0.1
0.08
0.058
0.036
0.017
-0.002
-0.019
-0.038
-0.056
-0.073
-0.089
-0.106
-0.119
-0.128
-0.134
-0.136
-0.136
-0.134
-0.132
-0.131
-0.13
-0.122
-0.122
-0.121
-0.12
-0.119
-0.125
-0.124
-0.122
-0.12
-0.12
-0.118
-0.117
-0.116
-0.116
-0.114
-0.113
-0.113
-0.112
-0.111
-0.111
-0.111
-0.11
-0.109
-0.108
-0.107
-0.107
-0.105
-0.104
-0.104
-0.103
-0.094
-0.093
-0.092
-0.09
-0.089
-0.096
-0.095
-0.094
-0.093
-0.093
-0.092
-0.09
-0.09
-0.09
-0.088
-0.088
-0.088
-0.086
-0.081
-0.072
-0.06
-0.044
-0.026
-0.009
0.005
0.018
0.03
0.039
0.044
0.047
0.047
0.045
0.04
0.032
0.022
0.009
-0.008
-0.025
-0.041
-0.055
-0.066
-0.075
-0.081
-0.084
-0.085
-0.085
-0.084
-0.083
-0.082
-0.082
-0.082
-0.082
-0.08
-0.08
-0.079
-0.078
-0.076
-0.075
-0.074
-0.075
-0.078
-0.089
-0.088
-0.065
-0.02
0.052
0.158
0.276
0.388
0.497
0.606
0.715
0.789
0.81
0.783
0.707
0.581
0.441
0.309
0.181
0.05
-0.07
-0.156
-0.205
-0.219
-0.201
-0.172
-0.15
-0.137
-0.131
-0.129
-0.129
-0.129
-0.127
-0.131
-0.129
-0.128
-0.126
-0.125
-0.12
-0.119
-0.118
-0.116
-0.113
-0.107
-0.096
-0.081
-0.064
-0.044
-0.026
-0.009
0.009
0.026
0.044
0.061
0.079
0.099
0.119
0.135
0.148
0.16
0.168
0.172
0.177
0.178
0.18
0.179
0.179
0.176
0.173
0.167
0.161
0.154
0.147
0.138
0.127
0.113
0.095
0.075
0.055
0.035
0.015
-0.005
-0.022
-0.038
-0.054
-0.072
-0.089
-0.107
-0.119
-0.128
-0.134
-0.136
-0.136
-0.135
-0.133
-0.133
-0.131
-0.129
-0.127
-0.127
-0.125
-0.124
-0.122
-0.121
-0.119
-0.117
-0.116
-0.115
-0.114
-0.113
-0.112
-0.111
-0.111
-0.11
-0.109
-0.108
-0.107
-0.107
-0.106
-0.105
-0.103
-0.102
-0.1
-0.098
-0.097
-0.096
-0.094
-0.099
-0.098
-0.097
-0.095
-0.094
-0.086
-0.085
-0.084
-0.076
-0.076
-0.075
-0.074
-0.073
-0.08
-0.078
-0.077
-0.077
-0.074
-0.068
-0.058
-0.046
-0.031
-0.014
0.003
0.02
0.033
0.045
0.054
0.06
0.063
0.063
0.061
0.056
0.048
0.037
0.023
0.008
-0.008
-0.025
-0.04
-0.053
-0.061
-0.067
-0.07
-0.071
-0.072
-0.072
-0.072
-0.071
-0.071
-0.07
-0.069
-0.068
-0.067
-0.066
-0.065
-0.064
-0.063
-0.063
-0.063
-0.065
-0.074
-0.072
-0.047
0.004
0.078
0.178
0.289
0.405
0.523
0.636
0.737
0.804
0.823
0.791
0.712
0.594
0.463
0.326
0.187
0.053
-0.059
-0.138
-0.186
-0.201
-0.183
-0.156
-0.136
-0.122
-0.117
-0.115
-0.115
-0.115
-0.114
-0.111
-0.109
-0.108
-0.107
-0.105
-0.106
-0.105
-0.103
-0.102
-0.099
-0.091
-0.081
-0.068
-0.051
-0.033
-0.014
0.003
0.019
0.036
0.055
0.075
0.094
0.114
0.132
0.148
0.161
0.171
0.177
0.18
0.182
0.184
0.186
0.187
0.186
0.185
0.18
0.173
0.167
0.162
0.155
0.147
0.136
0.122
0.104
0.084
0.062
0.041
0.021
0.003
-0.015
-0.033
-0.05
-0.066
-0.083
-0.1
-0.114
-0.124
-0.129
-0.131
-0.129
-0.126
-0.123
-0.122
-0.121
-0.12
-0.12
-0.12
-0.119
-0.118
-0.117
-0.116
-0.114
-0.113
-0.112
-0.11
-0.108
-0.107
-0.105
-0.104
-0.103
-0.102
-0.101
-0.1
-0.1
-0.099
-0.098
-0.097
-0.096
-0.095
-0.095
-0.093
-0.093
-0.092
-0.091
-0.081
-0.081
-0.08
-0.079
-0.078
-0.086
-0.085
-0.084
-0.084
-0.084
-0.082
-0.081
-0.08
-0.08
-0.078
-0.077
-0.076
-0.074
-0.068
-0.059
-0.047
-0.031
-0.013
0.003
0.017
0.029
0.04
0.048
0.053
0.055
0.061
0.058
0.052
0.044
0.034
0.015
-0
-0.016
-0.032
-0.047
-0.058
-0.067
-0.074
-0.078
-0.078
-0.079
-0.08
-0.079
-0.078
-0.078
-0.077
-0.077
-0.077
-0.076
-0.075
-0.075
-0.073
-0.072
-0.071
-0.071
-0.074
-0.084
-0.083
-0.059
-0.012
0.064
0.173
0.292
0.403
0.511
0.62
0.727
0.797
0.815
0.785
0.705
0.576
0.436
0.305
0.176
0.044
-0.076
-0.161
-0.208
-0.219
-0.199
-0.17
-0.148
-0.135
-0.131
-0.129
-0.127
-0.126
-0.124
-0.125
-0.123
-0.122
-0.12
-0.119
-0.116
-0.116
-0.116
-0.115
-0.111
-0.104
-0.094
-0.08
-0.063
-0.046
-0.029
-0.011
0.006
0.024
0.043
0.06
0.079
0.099
0.119
0.134
0.147
0.156
0.163
0.166
0.169
0.172
0.175
0.176
0.176
0.175
0.17
0.165
0.16
0.154
0.146
0.138
0.126
0.11
0.09
0.071
0.051
0.031
0.01
-0.009
-0.026
-0.042
-0.059
-0.078
-0.096
-0.113
-0.126
-0.134
-0.14
-0.141
-0.14
-0.14
-0.139
-0.138
-0.137
-0.135
-0.133
-0.132
-0.131
-0.129
-0.128
-0.127
-0.125
-0.123
-0.123
-0.121
-0.12
-0.119
-0.119
-0.118
-0.117
-0.116
-0.115
-0.113
-0.112
-0.111
-0.11
-0.109
-0.107
-0.106
-0.105
-0.104
-0.104
-0.104
-0.105
-0.103
-0.103
-0.102
-0.1
-0.097
-0.097
-0.096
-0.095
-0.094
-0.093
-0.092
-0.09
-0.09
-0.09
-0.09
-0.09
-0.089
-0.087
-0.08
-0.069
-0.056
-0.041
-0.023
-0.006
0.01
0.023
0.034
0.043
0.048
0.05
0.04
0.038
0.034
0.026
0.015
0.013
-0.002
-0.018
-0.031
-0.047
-0.059
-0.067
-0.073
-0.08
-0.08
-0.08
-0.08
-0.08
-0.079
-0.079
-0.08
-0.08
-0.079
-0.078
-0.077
-0.076
-0.075
-0.075
-0.074
-0.074
-0.077
-0.086
-0.082
-0.056
-0.005
0.071
0.171
0.281
0.397
0.515
0.626
0.725
0.789
0.806
0.772
0.692
0.574
0.443
0.306
0.167
0.035
-0.075
-0.153
-0.2
-0.213
-0.194
-0.167
-0.147
-0.133
-0.127
-0.124
-0.123
-0.121
-0.12
-0.118
-0.118
-0.118
-0.116
-0.114
-0.114
-0.112
-0.111
-0.111
-0.108
-0.101
-0.091
-0.077
-0.06
-0.04
-0.02
-0.002
0.014
0.03
0.048
0.067
0.086
0.105
0.124
0.14
0.153
0.163
0.169
0.172
0.175
0.175
0.177
0.178
0.179
0.177
0.175
0.17
0.165
0.159
0.153
0.144
0.132
0.118
0.101
0.08
0.059
0.038
0.019
0.001
-0.017
-0.034
-0.051
-0.068
-0.085
-0.101
-0.114
-0.123
-0.129
-0.131
-0.13
-0.129
-0.128
-0.127
-0.126
-0.124
-0.124
-0.122
-0.12
-0.118
-0.116
-0.115
-0.113
-0.112
-0.111
-0.109
-0.108
-0.107
-0.106
-0.105
-0.105
-0.103
-0.102
-0.108
-0.107
-0.105
-0.105
-0.104
-0.094
-0.094
-0.093
-0.091
-0.089
-0.088
-0.087
-0.078
-0.078
-0.079
-0.077
-0.076
-0.082
-0.081
-0.08
-0.08
-0.08
-0.079
-0.078
-0.078
-0.078
-0.077
-0.076
-0.076
-0.073
-0.067
-0.058
-0.046
-0.03
-0.011
0.006
0.022
0.036
0.049
0.059
0.064
0.067
0.072
0.069
0.063
0.055
0.044
0.025
0.009
-0.007
-0.023
-0.037
-0.047
-0.056
-0.063
-0.066
-0.067
-0.067
-0.068
-0.068
-0.066
-0.065
-0.065
-0.064
-0.063
-0.063
-0.063
-0.062
-0.061
-0.059
-0.058
-0.058
-0.063
-0.074
-0.071
-0.045
0.004
0.083
0.194
0.311
0.422
0.53
0.639
0.746
0.812
0.827
0.793
0.709
0.577
0.437
0.306
0.177
0.045
-0.072
-0.153
-0.196
-0.206
-0.186
-0.157
-0.136
-0.124
-0.119
-0.117
-0.117
-0.116
-0.114
-0.114
-0.113
-0.111
-0.109
-0.107
-0.106
-0.105
-0.104
-0.104
-0.102
-0.095
-0.084
-0.07
-0.052
-0.034
-0.016
0.002
0.019
0.036
0.054
0.072
0.091
0.112
0.131
0.146
0.158
0.167
0.173
0.178
0.181
0.184
0.187
0.187
0.186
0.184
0.18
0.174
0.168
0.161
0.153
0.143
0.131
0.115
0.095
0.076
0.056
0.036
0.015
-0.004
-0.021
-0.038
-0.055
-0.073
-0.092
-0.109
-0.122
-0.13
-0.135
-0.137
-0.135
-0.133
-0.131
-0.13
-0.128
-0.126
-0.125
-0.124
-0.123
-0.122
-0.121
-0.12
-0.118
-0.117
-0.117
-0.115
-0.113
-0.113
-0.112
-0.111
-0.111
-0.111
-0.109
-0.107
-0.106
-0.106
-0.105
-0.104
-0.104
-0.103
-0.101
-0.101
-0.1
-0.1
-0.099
-0.098
-0.097
-0.096
-0.095
-0.094
-0.093
-0.093
-0.092
-0.091
-0.091
-0.09
-0.089
-0.088
-0.088
-0.087
-0.086
-0.085
-0.082
-0.075
-0.065
-0.053
-0.038
-0.007
0.01
0.026
0.04
0.05
0.045
0.049
0.052
0.053
0.051
0.046
0.038
0.027
0.014
-0.001
-0.017
-0.034
-0.05
-0.061
-0.07
-0.076
-0.08
-0.081
-0.082
-0.083
-0.082
-0.08
-0.079
-0.078
-0.076
-0.074
-0.073
-0.072
-0.072
-0.072
-0.072
-0.073
-0.075
-0.079
-0.088
-0.083
-0.055
-0.001
0.077
0.179
0.291
0.409
0.525
0.635
0.733
0.793
0.805
0.767
0.683
0.561
0.429
0.291
0.151
0.019
-0.089
-0.164
-0.209
-0.218
-0.198
-0.172
-0.151
-0.138
-0.132
-0.129
-0.128
-0.127
-0.126
-0.125
-0.124
-0.123
-0.121
-0.119
-0.119
-0.119
-0.119
-0.118
-0.116
-0.109
-0.099
-0.084
-0.066
-0.047
-0.027
-0.01
0.006
0.023
0.041
0.061
0.08
0.099
0.118
0.134
0.147
0.157
0.164
0.168
0.171
0.174
0.176
0.177
0.176
0.174
0.17
0.166
0.161
0.156
0.149
0.14
0.128
0.113
0.095
0.075
0.052
0.031
0.011
-0.007
-0.025
-0.043
-0.061
-0.077
-0.094
-0.112
-0.126
-0.134
-0.14
-0.141
-0.139
-0.136
-0.135
-0.135
-0.133
-0.133
-0.132
-0.131
-0.129
-0.127
-0.125
-0.123
-0.122
-0.121
-0.121
-0.12
-0.119
-0.117
-0.115
-0.113
-0.112
-0.112
-0.111
-0.11
-0.109
-0.108
-0.106
-0.104
-0.102
-0.101
-0.1
-0.098
-0.098
-0.097
-0.096
-0.094
-0.094
-0.093
-0.092
-0.09
-0.09
-0.09
-0.089
-0.089
-0.089
-0.088
-0.086
-0.085
-0.085
-0.084
-0.083
-0.082
-0.08
-0.073
-0.064
-0.051
-0.035
-0.017
-0.001
0.013
0.027
0.039
0.047
0.052
0.054
0.059
0.056
0.051
0.044
0.033
0.015
-0.001
-0.017
-0.034
-0.048
-0.06
-0.069
-0.075
-0.077
-0.077
-0.077
-0.078
-0.077
-0.076
-0.075
-0.073
-0.072
-0.07
-0.069
-0.069
-0.069
-0.069
-0.069
-0.068
-0.068
-0.056
-0.066
-0.061
-0.035
0.015
0.078
0.189
0.305
0.415
0.524
0.636
0.743
0.808
0.82
0.783
0.696
0.564
0.426
0.297
0.168
0.036
-0.08
-0.159
-0.201
-0.209
-0.187
-0.159
-0.138
-0.127
-0.123
-0.121
-0.12
-0.119
-0.118
-0.117
-0.115
-0.114
-0.113
-0.112
-0.111
-0.111
-0.109
-0.107
-0.103
-0.095
-0.083
-0.067
-0.049
-0.03
-0.013
0.004
0.022
0.042
0.061
0.079
0.098
0.119
0.134
0.149
0.16
0.17
0.176
0.179
0.182
0.189
0.191
0.193
0.193
0.191
0.182
0.177
0.17
0.163
0.155
0.147
0.135
0.119
0.101
0.082
0.061
0.041
0.02
0.001
-0.016
-0.032
-0.049
-0.067
-0.085
-0.1
-0.111
-0.119
-0.124
-0.125
-0.124
-0.123
-0.122
-0.12
-0.118
-0.117
-0.117
-0.116
-0.115
-0.114
-0.113
-0.112
-0.111
-0.11
-0.109
-0.109
-0.108
-0.106
-0.105
-0.104
-0.102
-0.101
-0.099
-0.098
-0.096
-0.096
-0.095
-0.094
-0.093
-0.092
-0.091
-0.09
-0.089
-0.088
-0.087
-0.086
-0.085
-0.084
-0.083
-0.081
-0.08
-0.08
-0.079
-0.078
-0.077
-0.077
-0.077
-0.077
-0.076
-0.074
-0.072
-0.071
-0.068
-0.05
-0.041
-0.029
-0.013
0.004
0.01
0.026
0.039
0.05
0.058
0.062
0.063
0.051
0.048
0.042
0.033
0.022
0.021
0.006
-0.009
-0.026
-0.041
-0.051
-0.059
-0.064
-0.067
-0.067
-0.068
-0.068
-0.068
-0.066
-0.066
-0.066
-0.066
-0.066
-0.065
-0.065
-0.063
-0.061
-0.06
-0.059
-0.06
-0.062
-0.071
-0.066
-0.035
0.02
0.095
0.198
0.31
0.426
0.542
0.651
0.747
0.805
0.815
0.774
0.687
0.564
0.431
0.291
0.152
0.021
-0.085
-0.158
-0.2
-0.208
-0.186
-0.16
-0.142
-0.131
-0.125
-0.123
-0.121
-0.12
-0.119
-0.117
-0.117
-0.116
-0.114
-0.113
-0.112
-0.111
-0.111
-0.11
-0.107
-0.099
-0.088
-0.074
-0.056
-0.037
-0.018
-0.001
0.015
0.033
0.052
0.073
0.091
0.11
0.128
0.143
0.155
0.164
0.17
0.174
0.176
0.174
0.175
0.176
0.175
0.173
0.174
0.168
0.163
0.157
0.149
0.139
0.127
0.112
0.094
0.072
0.049
0.028
0.009
-0.01
-0.027
-0.044
-0.061
-0.078
-0.095
-0.112
-0.125
-0.135
-0.14
-0.14
-0.139
-0.137
-0.135
-0.133
-0.131
-0.13
-0.129
-0.127
-0.126
-0.125
-0.123
-0.123
-0.122
-0.121
-0.12
-0.12
-0.118
-0.117
-0.116
-0.114
-0.113
-0.113
-0.112
-0.111
-0.11
-0.109
-0.107
-0.106
-0.105
-0.105
-0.105
-0.103
-0.103
-0.101
-0.1
-0.099
-0.098
-0.098
-0.097
-0.092
-0.091
-0.09
-0.089
-0.089
-0.092
-0.091
-0.091
-0.09
-0.09
-0.088
-0.088
-0.087
-0.085
-0.079
-0.069
-0.055
-0.037
-0.019
-0.002
0.013
0.026
0.039
0.048
0.053
0.054
0.057
0.053
0.047
0.038
0.027
0.009
-0.007
-0.025
-0.042
-0.057
-0.069
-0.078
-0.082
-0.083
-0.083
-0.084
-0.084
-0.083
-0.082
-0.081
-0.081
-0.081
-0.081
-0.081
-0.081
-0.08
-0.079
-0.077
-0.076
-0.076
-0.062
-0.071
-0.065
-0.035
0.071
0.134
0.247
0.363
0.472
0.524
0.636
0.74
0.8
0.808
0.768
0.676
0.541
0.404
0.215
0.086
-0.046
-0.16
-0.236
-0.214
-0.219
-0.196
-0.168
-0.148
-0.137
-0.133
-0.131
-0.13
-0.128
-0.127
-0.125
-0.124
-0.123
-0.122
-0.121
-0.12
-0.118
-0.117
-0.116
-0.113
-0.106
-0.094
-0.079
-0.06
-0.041
-0.023
-0.006
0.01
0.027
0.045
0.063
0.083
0.104
0.123
0.137
0.149
0.159
0.166
0.172
0.175
0.183
0.184
0.183
0.182
0.179
0.169
0.164
0.159
0.152
0.145
0.136
0.124
0.107
0.089
0.069
0.049
0.03
0.009
-0.009
-0.026
-0.043
-0.061
-0.079
-0.097
-0.112
-0.122
-0.129
-0.134
-0.136
-0.135
-0.134
-0.133
-0.133
-0.131
-0.13
-0.129
-0.127
-0.125
-0.123
-0.121
-0.12
-0.118
-0.117
-0.117
-0.116
-0.115
-0.114
-0.114
-0.112
-0.111
-0.11
-0.109
-0.107
-0.106
-0.105
-0.103
-0.102
-0.101
-0.101
-0.101
-0.1
-0.099
-0.097
-0.095
-0.092
-0.091
-0.09
-0.089
-0.089
-0.088
-0.087
-0.086
-0.085
-0.085
-0.085
-0.085
-0.084
-0.083
-0.081
-0.08
-0.079
-0.075
-0.068
-0.058
-0.046
-0.029
-0.012
0.006
0.022
0.034
0.045
0.053
0.057
0.059
0.048
0.046
0.041
0.032
0.02
0.018
0.003
-0.014
-0.03
-0.045
-0.055
-0.062
-0.068
-0.071
-0.072
-0.072
-0.073
-0.072
-0.07
-0.069
-0.068
-0.066
-0.064
-0.064
-0.063
-0.062
-0.061
-0.06
-0.06
-0.061
-0.063
-0.072
-0.066
-0.034
0.022
0.098
0.203
0.316
0.434
0.55
0.659
0.755
0.811
0.818
0.775
0.686
0.562
0.428
0.288
0.15
0.021
-0.083
-0.154
-0.194
-0.2
-0.178
-0.152
-0.134
-0.123
-0.118
-0.116
-0.114
-0.112
-0.111
-0.109
-0.108
-0.107
-0.107
-0.106
-0.105
-0.104
-0.102
-0.101
-0.097
-0.09
-0.079
-0.065
-0.047
-0.028
-0.009
0.009
0.025
0.042
0.061
0.081
0.1
0.119
0.136
0.15
0.162
0.171
0.177
0.181
0.185
0.188
0.189
0.19
0.189
0.188
0.183
0.178
0.173
0.167
0.157
0.147
0.134
0.119
0.101
0.079
0.056
0.036
0.017
-0
-0.017
-0.034
-0.051
-0.068
-0.085
-0.102
-0.114
-0.122
-0.127
-0.128
-0.127
-0.126
-0.124
-0.123
-0.121
-0.12
-0.119
-0.119
-0.117
-0.116
-0.114
-0.112
-0.111
-0.109
-0.108
-0.106
-0.106
-0.106
-0.106
-0.105
-0.104
-0.103
-0.102
-0.101
-0.1
-0.1
-0.099
-0.097
-0.096
-0.095
-0.094
-0.092
-0.092
-0.092
-0.09
-0.09
-0.09
-0.089
-0.089
-0.088
-0.087
-0.086
-0.085
-0.084
-0.083
-0.082
-0.081
-0.079
-0.078
-0.077
-0.076
-0.075
-0.073
-0.067
-0.058
-0.045
-0.028
-0.01
0.007
0.022
0.036
0.048
0.056
0.059
0.061
0.061
0.056
0.05
0.041
0.03
0.016
-0.001
-0.017
-0.033
-0.048
-0.059
-0.068
-0.073
-0.076
-0.076
-0.076
-0.076
-0.075
-0.074
-0.073
-0.072
-0.072
-0.071
-0.071
-0.071
-0.07
-0.069
-0.068
-0.067
-0.068
-0.053
-0.064
-0.057
-0.029
0.023
0.086
0.199
0.314
0.424
0.532
0.645
0.748
0.806
0.811
0.769
0.675
0.54
0.404
0.274
0.143
0.009
-0.102
-0.175
-0.212
-0.215
-0.191
-0.163
-0.145
-0.135
-0.131
-0.13
-0.129
-0.128
-0.127
-0.126
-0.125
-0.123
-0.122
-0.12
-0.119
-0.118
-0.116
-0.115
-0.113
-0.106
-0.095
-0.081
-0.063
-0.045
-0.027
-0.009
0.009
0.03
0.048
0.066
0.086
0.107
0.123
0.137
0.148
0.158
0.164
0.168
0.171
0.174
0.175
0.175
0.175
0.173
0.168
0.162
0.156
0.149
0.141
0.132
0.119
0.103
0.085
0.066
0.045
0.024
0.003
-0.016
-0.034
-0.05
-0.068
-0.086
-0.103
-0.118
-0.13
-0.137
-0.141
-0.142
-0.14
-0.138
-0.136
-0.134
-0.132
-0.131
-0.131
-0.13
-0.128
-0.128
-0.127
-0.126
-0.126
-0.125
-0.125
-0.124
-0.123
-0.12
-0.118
-0.116
-0.115
-0.115
-0.115
-0.114
-0.113
-0.112
-0.111
-0.11
-0.109
-0.11
-0.109
-0.108
-0.107
-0.106
-0.105
-0.103
-0.102
-0.101
-0.099
-0.098
-0.098
-0.096
-0.095
-0.095
-0.094
-0.093
-0.093
-0.093
-0.092
-0.09
-0.088
-0.087
-0.084
-0.076
-0.065
-0.053
-0.037
-0.019
-0.002
0.013
0.026
0.037
0.046
0.05
0.052
0.051
0.048
0.042
0.033
0.022
0.009
-0.007
-0.023
-0.041
-0.056
-0.067
-0.074
-0.078
-0.08
-0.08
-0.08
-0.081
-0.081
-0.08
-0.079
-0.078
-0.078
-0.077
-0.076
-0.076
-0.076
-0.075
-0.075
-0.074
-0.075
-0.074
-0.083
-0.074
-0.041
0.055
0.13
0.236
0.35
0.468
0.544
0.653
0.746
0.798
0.801
0.754
0.662
0.537
0.403
0.263
0.126
-0.001
-0.102
-0.171
-0.209
-0.213
-0.189
-0.163
-0.145
-0.134
-0.13
-0.137
-0.136
-0.135
-0.133
-0.132
-0.122
-0.121
-0.119
-0.117
-0.116
-0.114
-0.113
-0.112
-0.108
-0.1
-0.089
-0.075
-0.057
-0.038
-0.019
-0.002
0.015
0.033
0.053
0.073
0.092
0.112
0.13
0.145
0.157
0.166
0.171
0.175
0.178
0.181
0.182
0.183
0.182
0.179
0.174
0.168
0.162
0.157
0.15
0.14
0.129
0.115
0.098
0.076
0.054
0.033
0.013
-0.006
-0.024
-0.041
-0.058
-0.073
-0.091
-0.108
-0.121
-0.129
-0.134
-0.134
-0.132
-0.13
-0.13
-0.129
-0.127
-0.126
-0.124
-0.122
-0.12
-0.12
-0.119
-0.117
-0.116
-0.115
-0.114
-0.112
-0.11
-0.109
-0.107
-0.105
-0.104
-0.104
-0.103
-0.101
-0.101
-0.1
-0.1
-0.098
-0.098
-0.096
-0.094
-0.092
-0.091
-0.091
-0.09
-0.088
-0.087
-0.086
-0.084
-0.082
-0.082
-0.082
-0.081
-0.08
-0.08
-0.078
-0.077
-0.077
-0.077
-0.07
-0.069
-0.068
-0.065
-0.058
-0.055
-0.041
-0.025
-0.008
0.009
0.024
0.037
0.049
0.058
0.062
0.063
0.065
0.061
0.056
0.047
0.036
0.02
0.004
-0.013
-0.029
-0.042
-0.055
-0.064
-0.07
-0.072
-0.071
-0.07
-0.07
-0.069
-0.068
-0.067
-0.067
-0.067
-0.066
-0.065
-0.065
-0.065
-0.064
-0.065
-0.064
-0.064
-0.069
-0.078
-0.069
-0.038
0.017
0.103
0.216
0.33
0.439
0.547
0.658
0.757
0.81
0.812
0.766
0.669
0.534
0.4
0.271
0.142
0.011
-0.097
-0.167
-0.203
-0.206
-0.181
-0.154
-0.136
-0.127
-0.124
-0.117
-0.115
-0.114
-0.112
-0.11
-0.115
-0.114
-0.113
-0.112
-0.111
-0.109
-0.108
-0.106
-0.103
-0.095
-0.083
-0.067
-0.049
-0.031
-0.014
0.004
0.021
0.039
0.057
0.075
0.095
0.116
0.134
0.148
0.159
0.168
0.174
0.178
0.18
0.182
0.183
0.183
0.183
0.182
0.177
0.173
0.168
0.162
0.155
0.144
0.131
0.114
0.094
0.074
0.053
0.032
0.011
-0.008
-0.025
-0.041
-0.059
-0.076
-0.093
-0.109
-0.121
-0.128
-0.132
-0.133
-0.132
-0.13
-0.129
-0.128
-0.127
-0.125
-0.124
-0.122
-0.12
-0.119
-0.119
-0.118
-0.117
-0.116
-0.116
-0.115
-0.114
-0.113
-0.111
-0.109
-0.108
-0.108
-0.107
-0.106
-0.104
-0.103
-0.101
-0.099
-0.098
-0.097
-0.097
-0.094
-0.093
-0.093
-0.092
-0.091
-0.094
-0.093
-0.092
-0.091
-0.09
-0.088
-0.088
-0.087
-0.087
-0.086
-0.085
-0.085
-0.084
-0.084
-0.084
-0.083
-0.08
-0.072
-0.061
-0.048
-0.032
-0.014
0.004
0.02
0.032
0.043
0.052
0.056
0.058
0.058
0.054
0.047
0.036
0.025
0.011
-0.004
-0.02
-0.037
-0.052
-0.062
-0.07
-0.075
-0.077
-0.078
-0.079
-0.079
-0.078
-0.079
-0.078
-0.077
-0.077
-0.077
-0.075
-0.076
-0.075
-0.074
-0.072
-0.071
-0.071
-0.077
-0.085
-0.075
-0.041
0.019
0.105
0.213
0.329
0.448
0.564
0.674
0.765
0.815
0.816
0.766
0.67
0.542
0.404
0.262
0.122
-0.007
-0.108
-0.176
-0.212
-0.213
-0.189
-0.164
-0.146
-0.137
-0.134
-0.132
-0.131
-0.13
-0.128
-0.126
-0.126
-0.126
-0.125
-0.123
-0.122
-0.12
-0.119
-0.117
-0.113
-0.105
-0.093
-0.079
-0.06
-0.04
-0.021
-0.003
0.013
0.032
0.052
0.071
0.09
0.11
0.127
0.143
0.155
0.165
0.171
0.174
0.176
0.179
0.18
0.18
0.179
0.175
0.17
0.165
0.159
0.153
0.144
0.134
0.121
0.106
0.088
0.066
0.043
0.023
0.004
-0.015
-0.033
-0.052
-0.069
-0.086
-0.103
-0.119
-0.131
-0.138
-0.141
-0.143
-0.142
-0.143
-0.142
-0.142
-0.14
-0.138
-0.134
-0.132
-0.13
-0.129
-0.127
-0.127
-0.126
-0.125
-0.124
-0.122
-0.121
-0.119
-0.118
-0.116
-0.115
-0.114
-0.112
-0.111
-0.11
-0.109
-0.108
-0.108
-0.107
-0.107
-0.106
-0.107
-0.106
-0.106
-0.104
-0.102
-0.098
-0.098
-0.096
-0.095
-0.096
-0.098
-0.098
-0.098
-0.099
-0.098
-0.097
-0.097
-0.096
-0.094
-0.093
-0.092
-0.089
-0.081
-0.069
-0.054
-0.037
-0.019
-0.003
0.011
0.024
0.035
0.042
0.045
0.046
0.046
0.042
0.036
0.027
0.016
0.002
-0.013
-0.029
-0.045
-0.059
-0.07
-0.078
-0.083
-0.084
-0.084
-0.084
-0.085
-0.084
-0.083
-0.082
-0.081
-0.079
-0.077
-0.076
-0.074
-0.073
-0.071
-0.07
-0.069
-0.07
-0.059
-0.068
-0.058
-0.025
0.032
0.1
0.212
0.325
0.435
0.546
0.658
0.752
0.801
0.801
0.752
0.652
0.52
0.386
0.255
0.122
-0.009
-0.112
-0.179
-0.212
-0.211
-0.185
-0.159
-0.141
-0.131
-0.128
-0.125
-0.124
-0.123
-0.121
-0.119
-0.119
-0.117
-0.115
-0.114
-0.113
-0.111
-0.11
-0.109
-0.105
-0.097
-0.085
-0.07
-0.051
-0.033
-0.015
0.002
0.02
0.038
0.058
0.078
0.097
0.118
0.136
0.149
0.16
0.169
0.174
0.178
0.18
0.182
0.184
0.184
0.183
0.18
0.176
0.171
0.166
0.159
0.151
0.141
0.128
0.111
0.093
0.073
0.053
0.032
0.012
-0.006
-0.024
-0.041
-0.058
-0.075
-0.091
-0.106
-0.117
-0.123
-0.126
-0.127
-0.125
-0.123
-0.123
-0.123
-0.123
-0.122
-0.121
-0.119
-0.118
-0.117
-0.117
-0.116
-0.115
-0.114
-0.113
-0.112
-0.111
-0.11
-0.109
-0.107
-0.105
-0.104
-0.103
-0.102
-0.101
-0.1
-0.099
-0.098
-0.097
-0.096
-0.095
-0.093
-0.092
-0.09
-0.089
-0.087
-0.086
-0.086
-0.085
-0.083
-0.082
-0.081
-0.08
-0.079
-0.078
-0.077
-0.076
-0.076
-0.075
-0.073
-0.072
-0.071
-0.067
-0.059
-0.048
-0.035
-0.019
-0.001
0.016
0.031
0.044
0.055
0.063
0.067
0.07
0.071
0.067
0.061
0.051
0.039
0.024
0.009
-0.009
-0.027
-0.041
-0.052
-0.059
-0.065
-0.067
-0.068
-0.07
-0.07
-0.07
-0.069
-0.069
-0.069
-0.068
-0.066
-0.066
-0.065
-0.064
-0.063
-0.062
-0.061
-0.062
-0.053
-0.061
-0.05
-0.013
0.049
0.119
0.228
0.344
0.461
0.576
0.684
0.773
0.818
0.815
0.762
0.664
0.536
0.4
0.26
0.123
-0.004
-0.101
-0.165
-0.199
-0.198
-0.174
-0.15
-0.134
-0.124
-0.121
-0.123
-0.122
-0.121
-0.12
-0.12
-0.116
-0.115
-0.113
-0.112
-0.111
-0.111
-0.11
-0.109
-0.105
-0.097
-0.085
-0.07
-0.051
-0.032
-0.014
0.003
0.019
0.037
0.057
0.076
0.096
0.116
0.134
0.149
0.162
0.171
0.176
0.18
0.182
0.184
0.185
0.185
0.183
0.175
0.17
0.164
0.158
0.152
0.148
0.137
0.124
0.108
0.089
0.068
0.046
0.026
0.007
-0.011
-0.028
-0.046
-0.063
-0.08
-0.098
-0.115
-0.127
-0.134
-0.138
-0.138
-0.136
-0.133
-0.132
-0.131
-0.13
-0.128
-0.127
-0.126
-0.124
-0.123
-0.122
-0.12
-0.119
-0.118
-0.117
-0.116
-0.115
-0.115
-0.114
-0.113
-0.112
-0.111
-0.109
-0.108
-0.107
-0.107
-0.107
-0.105
-0.104
-0.103
-0.101
-0.1
-0.099
-0.099
-0.098
-0.097
-0.097
-0.097
-0.096
-0.094
-0.093
-0.093
-0.092
-0.091
-0.092
-0.091
-0.09
-0.09
-0.089
-0.087
-0.087
-0.085
-0.082
-0.075
-0.065
-0.051
-0.035
-0.017
-0
0.014
0.028
0.039
0.046
0.049
0.051
0.05
0.046
0.039
0.03
0.018
0.003
-0.012
-0.028
-0.044
-0.057
-0.068
-0.076
-0.08
-0.082
-0.083
-0.083
-0.083
-0.083
-0.081
-0.081
-0.081
-0.08
-0.078
-0.077
-0.076
-0.075
-0.074
-0.074
-0.074
-0.075
-0.082
-0.09
-0.078
-0.043
0.016
0.108
0.224
0.339
0.449
0.558
0.671
0.767
0.814
0.81
0.758
0.652
0.513
0.377
0.246
0.115
-0.016
-0.121
-0.187
-0.217
-0.215
-0.188
-0.161
-0.144
-0.135
-0.131
-0.127
-0.125
-0.124
-0.122
-0.12
-0.122
-0.121
-0.12
-0.119
-0.118
-0.116
-0.115
-0.114
-0.11
-0.101
-0.089
-0.073
-0.055
-0.037
-0.02
-0.003
0.015
0.034
0.053
0.072
0.092
0.113
0.131
0.145
0.156
0.165
0.171
0.175
0.178
0.181
0.182
0.182
0.181
0.178
0.173
0.167
0.161
0.153
0.145
0.134
0.121
0.104
0.085
0.065
0.045
0.025
0.004
-0.014
-0.03
-0.047
-0.064
-0.082
-0.101
-0.115
-0.126
-0.133
-0.137
-0.137
-0.135
-0.133
-0.131
-0.129
-0.127
-0.126
-0.126
-0.126
-0.125
-0.123
-0.122
-0.121
-0.119
-0.117
-0.117
-0.115
-0.114
-0.113
-0.111
-0.11
-0.109
-0.108
-0.108
-0.107
-0.105
-0.105
-0.104
-0.102
-0.101
-0.1
-0.099
-0.096
-0.095
-0.094
-0.092
-0.091
-0.091
-0.09
-0.089
-0.088
-0.087
-0.085
-0.084
-0.083
-0.083
-0.082
-0.081
-0.081
-0.08
-0.079
-0.078
-0.077
-0.071
-0.062
-0.051
-0.037
-0.02
-0.003
0.014
0.03
0.042
0.053
0.06
0.063
0.064
0.064
0.06
0.054
0.044
0.032
0.017
0.001
-0.016
-0.033
-0.048
-0.058
-0.065
-0.068
-0.069
-0.069
-0.069
-0.069
-0.068
-0.067
-0.067
-0.067
-0.066
-0.065
-0.064
-0.063
-0.062
-0.061
-0.059
-0.059
-0.06
-0.066
-0.073
-0.06
-0.023
0.039
0.126
0.235
0.349
0.467
0.582
0.689
0.776
0.82
0.814
0.76
0.66
0.531
0.396
0.257
0.12
-0.005
-0.1
-0.165
-0.197
-0.195
-0.17
-0.146
-0.13
-0.121
-0.118
-0.116
-0.115
-0.114
-0.113
-0.112
-0.113
-0.112
-0.111
-0.108
-0.106
-0.104
-0.103
-0.101
-0.097
-0.088
-0.076
-0.061
-0.043
-0.023
-0.004
0.012
0.029
0.048
0.068
0.087
0.106
0.125
0.142
0.158
0.17
0.179
0.184
0.187
0.19
0.192
0.193
0.192
0.19
0.184
0.179
0.173
0.168
0.161
0.155
0.145
0.132
0.117
0.099
0.078
0.056
0.035
0.016
-0.003
-0.021
-0.038
-0.056
-0.073
-0.09
-0.106
-0.118
-0.125
-0.129
-0.129
-0.128
-0.126
-0.125
-0.124
-0.122
-0.12
-0.119
-0.118
-0.117
-0.117
-0.117
-0.116
-0.115
-0.113
-0.112
-0.11
-0.107
-0.107
-0.106
-0.106
-0.105
-0.106
-0.105
-0.103
-0.102
-0.101
-0.099
-0.097
-0.096
-0.095
-0.093
-0.095
-0.094
-0.094
-0.092
-0.091
-0.086
-0.086
-0.084
-0.084
-0.084
-0.083
-0.082
-0.082
-0.082
-0.08
-0.079
-0.079
-0.079
-0.077
-0.077
-0.076
-0.071
-0.062
-0.051
-0.037
-0.02
-0.003
0.013
0.027
0.041
0.052
0.059
0.063
0.064
0.063
0.06
0.054
0.045
0.033
0.017
-0.001
-0.019
-0.035
-0.049
-0.061
-0.068
-0.073
-0.074
-0.074
-0.074
-0.075
-0.074
-0.073
-0.072
-0.071
-0.069
-0.067
-0.066
-0.066
-0.066
-0.065
-0.065
-0.064
-0.066
-0.074
-0.081
-0.068
-0.033
0.029
0.124
0.242
0.359
0.47
0.58
0.695
0.79
0.834
0.828
0.772
0.662
0.52
0.382
0.25
0.117
-0.016
-0.121
-0.186
-0.214
-0.209
-0.181
-0.155
-0.139
-0.131
-0.128
-0.124
-0.123
-0.121
-0.119
-0.118
-0.121
-0.12
-0.119
-0.119
-0.118
-0.116
-0.115
-0.114
-0.11
-0.101
-0.088
-0.072
-0.053
-0.034
-0.016
0.002
0.02
0.038
0.056
0.075
0.096
0.112
0.126
0.14
0.151
0.159
0.163
0.167
0.17
0.172
0.172
0.172
0.171
0.169
0.165
0.16
0.154
0.146
0.137
0.126
0.112
0.095
0.076
0.056
0.036
0.016
-0.003
-0.021
-0.039
-0.058
-0.077
-0.096
-0.114
-0.129
-0.139
-0.146
-0.15
-0.151
-0.149
-0.147
-0.145
-0.144
-0.143
-0.142
-0.142
-0.141
-0.14
-0.138
-0.137
-0.135
-0.133
-0.132
-0.131
-0.13
-0.129
-0.128
-0.126
-0.124
-0.123
-0.122
-0.12
-0.12
-0.12
-0.119
-0.118
-0.117
-0.115
-0.114
-0.113
-0.11
-0.109
-0.108
-0.105
-0.103
-0.103
-0.101
-0.1
-0.099
-0.099
-0.098
-0.098
-0.097
-0.097
-0.096
-0.095
-0.095
-0.094
-0.092
-0.091
-0.089
-0.084
-0.075
-0.063
-0.048
-0.031
-0.013
0.003
0.017
0.029
0.041
0.048
0.052
0.054
0.053
0.048
0.041
0.03
0.018
0.003
-0.013
-0.032
-0.048
-0.061
-0.071
-0.077
-0.08
-0.082
-0.082
-0.084
-0.085
-0.083
-0.082
-0.081
-0.08
-0.08
-0.08
-0.079
-0.078
-0.077
-0.076
-0.075
-0.075
-0.079
-0.088
-0.092
-0.074
-0.031
0.039
0.138
0.255
0.373
0.49
0.605
0.717
0.801
0.835
0.819
0.752
0.636
0.497
0.358
0.22
0.083
-0.042
-0.135
-0.193
-0.217
-0.208
-0.18
-0.156
-0.141
-0.133
-0.13
-0.129
-0.128
-0.127
-0.126
-0.125
-0.123
-0.121
-0.118
-0.117
-0.116
-0.115
-0.113
-0.111
-0.105
-0.095
-0.082
-0.066
-0.047
-0.029
-0.011
0.006
0.023
0.042
0.063
0.084
0.105
0.126
0.144
0.158
0.168
0.177
0.182
0.184
0.187
0.189
0.188
0.187
0.185
0.182
0.178
0.172
0.166
0.16
0.151
0.139
0.126
0.108
0.088
0.066
0.044
0.023
0.003
-0.014
-0.032
-0.05
-0.067
-0.084
-0.102
-0.117
-0.128
-0.134
-0.137
-0.136
-0.135
-0.132
-0.131
-0.13
-0.129
-0.126
-0.125
-0.124
-0.122
-0.121
-0.12
-0.119
-0.116
-0.115
-0.114
-0.112
-0.112
-0.112
-0.111
-0.109
-0.108
-0.106
-0.104
-0.103
-0.102
-0.101
-0.1
-0.098
-0.097
-0.096
-0.096
-0.097
-0.097
-0.097
-0.095
-0.093
-0.091
-0.09
-0.089
-0.088
-0.088
-0.086
-0.085
-0.084
-0.083
-0.081
-0.08
-0.08
-0.079
-0.079
-0.078
-0.077
-0.073
-0.065
-0.053
-0.039
-0.022
-0.004
0.013
0.028
0.041
0.052
0.06
0.063
0.064
0.063
0.06
0.052
0.042
0.03
0.016
0
-0.017
-0.033
-0.047
-0.057
-0.064
-0.068
-0.069
-0.07
-0.07
-0.07
-0.069
-0.069
-0.068
-0.069
-0.069
-0.068
-0.067
-0.067
-0.065
-0.064
-0.063
-0.062
-0.063
-0.072
-0.078
-0.064
-0.026
0.039
0.135
0.249
0.365
0.479
0.592
0.703
0.791
0.832
0.822
0.762
0.652
0.516
0.379
0.244
0.108
-0.02
-0.119
-0.181
-0.209
-0.203
-0.175
-0.15
-0.134
-0.126
-0.123
-0.121
-0.121
-0.121
-0.119
-0.118
-0.116
-0.115
-0.113
-0.112
-0.111
-0.11
-0.108
-0.107
-0.102
-0.092
-0.079
-0.062
-0.043
-0.025
-0.008
0.01
0.026
0.045
0.065
0.084
0.104
0.125
0.143
0.156
0.168
0.178
0.183
0.186
0.189
0.191
0.19
0.188
0.187
0.183
0.179
0.174
0.168
0.161
0.152
0.141
0.127
0.11
0.09
0.069
0.047
0.025
0.004
-0.015
-0.033
-0.051
-0.069
-0.086
-0.104
-0.118
-0.129
-0.136
-0.139
-0.14
-0.138
-0.136
-0.134
-0.132
-0.131
-0.129
-0.129
-0.128
-0.127
-0.125
-0.125
-0.125
-0.123
-0.122
-0.121
-0.119
-0.118
-0.117
-0.117
-0.116
-0.115
-0.114
-0.112
-0.11
-0.108
-0.107
-0.106
-0.104
-0.103
-0.103
-0.102
-0.102
-0.102
-0.102
-0.1
-0.1
-0.099
-0.097
-0.096
-0.095
-0.095
-0.094
-0.093
-0.093
-0.092
-0.09
-0.089
-0.088
-0.088
-0.087
-0.087
-0.086
-0.081
-0.072
-0.061
-0.046
-0.03
-0.012
0.004
0.018
0.03
0.041
0.049
0.053
0.056
0.055
0.05
0.042
0.032
0.019
0.005
-0.011
-0.027
-0.044
-0.058
-0.068
-0.076
-0.08
-0.082
-0.082
-0.082
-0.082
-0.081
-0.079
-0.079
-0.079
-0.079
-0.078
-0.077
-0.076
-0.075
-0.074
-0.074
-0.075
-0.077
-0.085
-0.09
-0.074
-0.034
0.032
0.126
0.24
0.356
0.472
0.586
0.697
0.783
0.822
0.809
0.746
0.636
0.5
0.363
0.226
0.088
-0.038
-0.134
-0.194
-0.22
-0.212
-0.184
-0.16
-0.145
-0.137
-0.135
-0.133
-0.132
-0.131
-0.129
-0.128
-0.128
-0.127
-0.126
-0.125
-0.123
-0.121
-0.12
-0.118
-0.113
-0.104
-0.092
-0.076
-0.057
-0.038
-0.02
-0.003
0.014
0.032
0.052
0.071
0.091
0.112
0.129
0.143
0.154
0.163
0.168
0.172
0.174
0.177
0.179
0.179
0.178
0.175
0.171
0.165
0.158
0.152
0.142
0.131
0.116
0.099
0.079
0.058
0.038
0.019
-0.001
-0.021
-0.038
-0.057
-0.075
-0.091
-0.107
-0.121
-0.131
-0.137
-0.141
-0.141
-0.139
-0.137
-0.136
-0.134
-0.133
-0.132
-0.132
-0.131
-0.13
-0.129
-0.127
-0.126
-0.124
-0.122
-0.121
-0.12
-0.118
-0.118
-0.117
-0.116
-0.114
-0.113
-0.111
-0.11
-0.109
-0.108
-0.108
-0.106
-0.105
-0.105
-0.104
-0.103
-0.102
-0.101
-0.098
-0.097
-0.096
-0.096
-0.096
-0.096
-0.096
-0.095
-0.093
-0.091
-0.09
-0.088
-0.087
-0.086
-0.085
-0.083
-0.083
-0.082
-0.078
-0.07
-0.058
-0.044
-0.026
-0.008
0.01
0.025
0.038
0.047
0.054
0.056
0.057
0.056
0.053
0.046
0.036
0.024
0.009
-0.007
-0.023
-0.037
-0.051
-0.061
-0.068
-0.073
-0.076
-0.075
-0.074
-0.073
-0.072
-0.071
-0.071
-0.071
-0.071
-0.07
-0.07
-0.07
-0.069
-0.068
-0.067
-0.066
-0.069
-0.077
-0.083
-0.066
-0.026
0.041
0.139
0.257
0.371
0.483
0.596
0.713
0.813
0.859
0.848
0.784
0.668
0.524
0.384
0.251
0.115
-0.016
-0.116
-0.178
-0.202
-0.194
-0.165
-0.139
-0.123
-0.114
-0.11
-0.108
-0.106
-0.105
-0.104
-0.103
-0.102
-0.102
-0.1
-0.099
-0.099
-0.099
-0.098
-0.096
-0.092
-0.083
-0.07
-0.053
-0.034
-0.015
0.002
0.02
0.038
0.057
0.076
0.094
0.115
0.136
0.154
0.167
0.178
0.191
0.196
0.199
0.201
0.203
0.197
0.196
0.195
0.193
0.189
0.185
0.18
0.173
0.163
0.152
0.137
0.118
0.098
0.078
0.058
0.037
0.016
-0.004
-0.021
-0.038
-0.056
-0.074
-0.091
-0.105
-0.115
-0.122
-0.125
-0.125
-0.123
-0.121
-0.121
-0.12
-0.12
-0.119
-0.119
-0.118
-0.116
-0.115
-0.114
-0.112
-0.11
-0.11
-0.11
-0.11
-0.108
-0.107
-0.106
-0.104
-0.103
-0.102
-0.101
-0.1
-0.098
-0.097
-0.096
-0.094
-0.093
-0.092
-0.092
-0.091
-0.091
-0.092
-0.091
-0.089
-0.088
-0.086
-0.085
-0.084
-0.084
-0.083
-0.082
-0.082
-0.081
-0.08
-0.08
-0.079
-0.078
-0.077
-0.075
-0.073
-0.068
-0.06
-0.048
-0.036
-0.021
-0.003
0.014
0.028
0.04
0.054
0.061
0.065
0.067
0.066
0.059
0.052
0.041
0.027
0.011
-0.005
-0.023
-0.039
-0.052
-0.06
-0.065
-0.068
-0.07
-0.07
-0.071
-0.071
-0.07
-0.07
-0.07
-0.07
-0.07
-0.069
-0.069
-0.069
-0.068
-0.069
-0.069
-0.069
-0.071
-0.079
-0.082
-0.065
-0.023
0.045
0.138
0.248
0.362
0.479
0.592
0.698
0.778
0.812
0.796
0.731
0.622
0.491
0.356
0.218
0.081
-0.04
-0.129
-0.185
-0.209
-0.2
-0.173
-0.15
-0.136
-0.129
-0.127
-0.126
-0.125
-0.123
-0.121
-0.118
-0.117
-0.116
-0.115
-0.113
-0.113
-0.112
-0.111
-0.11
-0.104
-0.094
-0.082
-0.066
-0.048
-0.03
-0.012
0.005
0.021
0.038
0.058
0.077
0.096
0.116
0.133
0.146
0.157
0.164
0.168
0.171
0.173
0.175
0.177
0.177
0.175
0.171
0.166
0.16
0.154
0.147
0.139
0.128
0.115
0.1
0.08
0.058
0.036
0.015
-0.005
-0.022
-0.04
-0.058
-0.074
-0.09
-0.107
-0.122
-0.133
-0.142
-0.145
-0.144
-0.141
-0.139
-0.136
-0.134
-0.133
-0.131
-0.13
-0.128
-0.127
-0.127
-0.127
-0.127
-0.126
-0.125
-0.125
-0.122
-0.121
-0.119
-0.117
-0.114
-0.113
-0.112
-0.112
-0.111
-0.111
-0.11
-0.11
-0.11
-0.11
-0.11
-0.109
-0.107
-0.105
-0.105
-0.104
-0.102
-0.102
-0.101
-0.1
-0.099
-0.098
-0.097
-0.097
-0.096
-0.095
-0.093
-0.091
-0.09
-0.089
-0.088
-0.088
-0.087
-0.083
-0.075
-0.064
-0.049
-0.032
-0.015
0.001
0.015
0.028
0.037
0.043
0.047
0.048
0.046
0.043
0.036
0.025
0.012
-0.003
-0.019
-0.035
-0.049
-0.061
-0.07
-0.078
-0.082
-0.083
-0.084
-0.085
-0.085
-0.084
-0.086
-0.085
-0.084
-0.082
-0.081
-0.078
-0.077
-0.077
-0.076
-0.074
-0.074
-0.077
-0.085
-0.09
-0.073
-0.033
0.034
0.133
0.251
0.367
0.476
0.585
0.694
0.779
0.813
0.796
0.731
0.617
0.477
0.341
0.212
0.082
-0.042
-0.138
-0.195
-0.218
-0.208
-0.18
-0.155
-0.14
-0.133
-0.13
-0.128
-0.129
-0.127
-0.125
-0.124
-0.123
-0.122
-0.121
-0.12
-0.12
-0.118
-0.115
-0.113
-0.107
-0.097
-0.084
-0.068
-0.049
-0.03
-0.013
0.005
0.023
0.041
0.059
0.077
0.096
0.117
0.135
0.147
0.157
0.17
0.174
0.177
0.181
0.188
0.185
0.184
0.184
0.181
0.171
0.166
0.16
0.152
0.143
0.133
0.118
0.1
0.081
0.062
0.042
0.021
0.001
-0.018
-0.035
-0.052
-0.07
-0.088
-0.105
-0.119
-0.13
-0.132
-0.134
-0.134
-0.132
-0.131
-0.133
-0.132
-0.13
-0.129
-0.127
-0.125
-0.123
-0.121
-0.121
-0.12
-0.119
-0.118
-0.117
-0.115
-0.114
-0.112
-0.111
-0.11
-0.109
-0.108
-0.106
-0.104
-0.103
-0.102
-0.1
-0.099
-0.098
-0.098
-0.097
-0.096
-0.095
-0.095
-0.094
-0.094
-0.094
-0.093
-0.092
-0.091
-0.091
-0.09
-0.089
-0.088
-0.088
-0.086
-0.085
-0.085
-0.084
-0.082
-0.082
-0.08
-0.074
-0.065
-0.052
-0.036
-0.019
-0.001
0.017
0.031
0.043
0.054
0.059
0.061
0.062
0.06
0.055
0.047
0.034
0.019
0.002
-0.015
-0.031
-0.047
-0.06
-0.069
-0.074
-0.077
-0.077
-0.077
-0.077
-0.078
-0.077
-0.076
-0.075
-0.075
-0.074
-0.073
-0.072
-0.071
-0.071
-0.07
-0.07
-0.069
-0.072
-0.08
-0.08
-0.057
-0.011
0.061
0.16
0.272
0.386
0.499
0.609
0.714
0.786
0.81
0.784
0.709
0.591
0.458
0.324
0.191
0.059
-0.057
-0.142
-0.192
-0.209
-0.195
-0.166
-0.144
-0.13
-0.123
-0.122
-0.12
-0.119
-0.118
-0.117
-0.115
-0.114
-0.113
-0.112
-0.111
-0.11
-0.109
-0.108
-0.106
-0.099
-0.089
-0.075
-0.059
-0.041
-0.022
-0.005
0.012
0.029
0.048
0.067
0.087
0.106
0.125
0.141
0.153
0.163
0.171
0.176
0.179
0.182
0.184
0.185
0.185
0.182
0.179
0.173
0.167
0.161
0.154
0.145
0.134
0.121
0.103
0.083
0.063
0.043
0.023
0.003
-0.015
-0.033
-0.051
-0.068
-0.084
-0.1
-0.114
-0.124
-0.131
-0.134
-0.134
-0.133
-0.131
-0.128
-0.126
-0.124
-0.123
-0.122
-0.121
-0.121
-0.119
-0.117
-0.116
-0.114
-0.112
-0.112
-0.111
-0.11
-0.109
-0.108
-0.106
-0.105
-0.104
-0.102
-0.1
-0.099
-0.098
-0.097
-0.096
-0.095
-0.094
-0.093
-0.091
-0.089
-0.088
-0.087
-0.085
-0.084
-0.084
-0.084
-0.083
-0.083
-0.083
-0.082
-0.082
-0.081
-0.08
-0.079
-0.078
-0.077
-0.077
-0.076
-0.074
-0.069
-0.06
-0.049
-0.034
-0.017
0
0.016
0.029
0.042
0.051
0.058
0.061
0.062
0.06
0.055
0.047
0.036
0.023
0.007
-0.009
-0.026
-0.041
-0.054
-0.063
-0.07
-0.073
-0.074
-0.074
-0.075
-0.074
-0.074
-0.073
-0.073
-0.073
-0.073
-0.072
-0.071
-0.071
-0.071
-0.071
-0.071
-0.072
-0.075
-0.083
-0.085
-0.066
-0.024
0.045
0.144
0.26
0.374
0.486
0.597
0.707
0.787
0.817
0.798
0.73
0.613
0.475
0.34
0.207
0.073
-0.049
-0.14
-0.194
-0.215
-0.203
-0.175
-0.152
-0.137
-0.13
-0.129
-0.127
-0.127
-0.125
-0.123
-0.121
-0.12
-0.119
-0.118
-0.117
-0.117
-0.116
-0.115
-0.112
-0.106
-0.096
-0.082
-0.066
-0.048
-0.03
-0.013
0.003
0.02
0.038
0.057
0.076
0.096
0.116
0.133
0.146
0.156
0.165
0.17
0.174
0.177
0.179
0.177
0.176
0.174
0.17
0.164
0.159
0.153
0.145
0.136
0.126
0.113
0.102
0.088
0.069
0.048
0.026
0.006
-0.013
-0.03
-0.047
-0.067
-0.09
-0.112
-0.127
-0.138
-0.142
-0.144
-0.144
-0.142
-0.14
-0.14
-0.139
-0.138
-0.137
-0.136
-0.135
-0.133
-0.132
-0.13
-0.128
-0.126
-0.125
-0.124
-0.123
-0.123
-0.123
-0.122
-0.122
-0.12
-0.119
-0.118
-0.116
-0.113
-0.112
-0.111
-0.109
-0.108
-0.108
-0.108
-0.107
-0.106
-0.105
-0.103
-0.101
-0.1
-0.099
-0.098
-0.098
-0.098
-0.097
-0.097
-0.097
-0.096
-0.095
-0.094
-0.094
-0.093
-0.093
-0.093
-0.091
-0.084
-0.074
-0.06
-0.043
-0.025
-0.007
0.01
0.023
0.035
0.045
0.05
0.052
0.053
0.052
0.047
0.04
0.03
0.017
0.002
-0.015
-0.031
-0.047
-0.06
-0.069
-0.075
-0.079
-0.081
-0.081
-0.081
-0.081
-0.08
-0.078
-0.077
-0.077
-0.076
-0.075
-0.074
-0.074
-0.074
-0.073
-0.073
-0.073
-0.076
-0.085
-0.087
-0.066
-0.022
0.049
0.149
0.263
0.378
0.493
0.606
0.713
0.79
0.819
0.797
0.725
0.607
0.471
0.334
0.198
0.064
-0.057
-0.144
-0.198
-0.217
-0.204
-0.176
-0.153
-0.138
-0.131
-0.128
-0.126
-0.125
-0.124
-0.124
-0.122
-0.121
-0.12
-0.118
-0.115
-0.114
-0.113
-0.112
-0.111
-0.105
-0.095
-0.082
-0.064
-0.046
-0.027
-0.008
0.01
0.027
0.047
0.067
0.087
0.106
0.126
0.143
0.157
0.167
0.176
0.181
0.184
0.186
0.189
0.188
0.186
0.184
0.179
0.173
0.167
0.16
0.152
0.143
0.132
0.118
0.101
0.081
0.06
0.038
0.018
-0.001
-0.018
-0.035
-0.051
-0.068
-0.084
-0.101
-0.116
-0.126
-0.133
-0.136
-0.135
-0.132
-0.13
-0.128
-0.127
-0.126
-0.125
-0.123
-0.121
-0.12
-0.118
-0.118
-0.117
-0.117
-0.116
-0.115
-0.113
-0.111
-0.11
-0.109
-0.107
-0.107
-0.106
-0.104
-0.103
-0.101
-0.1
-0.099
-0.097
-0.096
-0.096
-0.095
-0.093
-0.093
-0.092
-0.09
-0.087
-0.085
-0.085
-0.084
-0.084
-0.085
-0.085
-0.085
-0.084
-0.083
-0.082
-0.081
-0.081
-0.081
-0.08
-0.079
-0.077
-0.072
-0.062
-0.049
-0.032
-0.015
0.004
0.021
0.034
0.046
0.054
0.06
0.062
0.063
0.061
0.059
0.051
0.042
0.029
0.014
-0.002
-0.019
-0.035
-0.049
-0.06
-0.068
-0.072
-0.073
