0.02
0.014
0.007
-0.001
-0.01
-0.017
-0.023
-0.028
-0.032
-0.034
-0.035
-0.036
-0.036
-0.036
-0.035
-0.036
-0.035
-0.035
-0.035
-0.036
-0.035
-0.035
-0.035
-0.034
-0.034
-0.034
-0.035
-0.039
-0.042
-0.036
-0.019
0.01
0.076
0.129
0.184
0.24
0.294
0.323
0.367
0.388
0.385
0.358
0.309
0.245
0.18
0.115
0.051
-0.01
-0.059
-0.09
-0.104
-0.103
-0.09
-0.078
-0.07
-0.066
-0.065
-0.065
-0.064
-0.063
-0.063
-0.063
-0.062
-0.061
-0.061
-0.06
-0.06
-0.06
-0.059
-0.058
-0.056
-0.052
-0.046
-0.038
-0.03
-0.021
-0.012
-0.003
0.004
0.012
0.021
0.031
0.04
0.049
0.058
0.064
0.069
0.074
0.077
0.078
0.079
0.08
0.081
0.081
0.08
0.079
0.078
0.075
0.073
0.07
0.066
0.061
0.054
0.047
0.038
0.027
0.016
0.007
-0.003
-0.012
-0.02
-0.028
-0.036
-0.044
-0.052
-0.059
-0.065
-0.068
-0.07
-0.071
-0.071
-0.071
-0.07
-0.069
-0.069
-0.068
-0.067
-0.066
-0.066
-0.065
-0.065
-0.065
-0.065
-0.063
-0.063
-0.062
-0.062
-0.061
-0.061
-0.061
-0.06
-0.059
-0.059
-0.058
-0.057
-0.057
-0.056
-0.055
-0.055
-0.054
-0.054
-0.053
-0.053
-0.052
-0.052
-0.051
-0.051
-0.05
-0.05
-0.049
-0.048
-0.048
-0.048
-0.047
-0.046
-0.046
-0.046
-0.046
-0.045
-0.045
-0.044
-0.043
-0.041
-0.038
-0.033
-0.026
-0.018
-0.01
-0.001
0.006
0.012
0.017
0.021
0.023
0.023
0.022
0.021
0.018
0.013
0.008
0.002
-0.006
-0.014
-0.021
-0.027
-0.032
-0.036
-0.039
-0.039
-0.04
-0.04
-0.04
-0.04
-0.04
-0.039
-0.039
-0.039
-0.038
-0.038
-0.037
-0.037
-0.037
-0.036
-0.035
-0.036
-0.039
-0.042
-0.037
-0.021
0.008
0.051
0.104
0.159
0.214
0.282
0.335
0.38
0.403
0.402
0.362
0.314
0.251
0.186
0.121
0.057
-0.005
-0.053
-0.086
-0.102
-0.1
-0.088
-0.076
-0.067
-0.063
-0.061
-0.061
-0.06
-0.059
-0.059
-0.058
-0.058
-0.057
-0.057
-0.056
-0.055
-0.054
-0.054
-0.053
-0.05
-0.046
-0.04
-0.032
-0.023
-0.014
-0.006
0.003
0.011
0.019
0.028
0.038
0.047
0.056
0.065
0.072
0.077
0.082
0.085
0.086
0.087
0.089
0.09
0.09
0.089
0.087
0.085
0.083
0.08
0.078
0.075
0.07
0.063
0.056
0.047
0.037
0.027
0.017
0.008
-0.002
-0.01
-0.018
-0.026
-0.035
-0.042
-0.05
-0.056
-0.059
-0.061
-0.061
-0.061
-0.06
-0.059
-0.059
-0.058
-0.056
-0.055
-0.054
-0.054
-0.054
-0.053
-0.053
-0.053
-0.052
-0.051
-0.051
-0.05
-0.049
-0.048
-0.047
-0.046
-0.045
-0.045
-0.045
-0.045
-0.044
-0.044
-0.043
-0.042
-0.041
-0.041
-0.04
-0.039
-0.039
-0.039
-0.039
-0.038
-0.038
-0.038
-0.037
-0.036
-0.036
-0.036
-0.036
-0.035
-0.034
-0.034
-0.033
-0.032
-0.032
-0.032
-0.031
-0.03
-0.027
-0.022
-0.015
-0.007
0.002
0.01
0.017
0.024
0.029
0.033
0.034
0.034
0.034
0.033
0.03
0.025
0.02
0.014
0.006
-0.003
-0.011
-0.018
-0.023
-0.027
-0.029
-0.03
-0.029
-0.029
-0.029
-0.028
-0.028
-0.028
-0.027
-0.027
-0.027
-0.027
-0.026
-0.027
-0.027
-0.026
-0.026
-0.027
-0.03
-0.034
-0.029
-0.014
0.013
0.056
0.109
0.164
0.219
0.273
0.326
0.371
0.396
0.397
0.373
0.326
0.263
0.199
0.133
0.069
0.007
-0.043
-0.077
-0.094
-0.094
-0.082
-0.07
-0.061
-0.056
-0.055
-0.054
-0.053
-0.053
-0.053
-0.053
-0.052
-0.052
-0.052
-0.051
-0.049
-0.049
-0.048
-0.048
-0.043
-0.04
-0.035
-0.027
-0.018
-0.012
-0.004
0.005
0.017
0.025
0.034
0.044
0.053
0.058
0.067
0.074
0.079
0.082
0.085
0.087
0.088
0.09
0.09
0.09
0.089
0.087
0.085
0.083
0.079
0.076
0.07
0.065
0.058
0.051
0.043
0.036
0.025
0.016
0.006
-0.004
-0.012
-0.02
-0.028
-0.037
-0.045
-0.052
-0.058
-0.062
-0.063
-0.064
-0.064
-0.063
-0.063
-0.062
-0.062
-0.062
-0.061
-0.061
-0.06
-0.06
-0.058
-0.057
-0.057
-0.056
-0.055
-0.055
-0.055
-0.054
-0.053
-0.053
-0.053
-0.052
-0.052
-0.052
-0.052
-0.052
-0.052
-0.052
-0.051
-0.051
-0.05
-0.05
-0.05
-0.05
-0.049
-0.049
-0.048
-0.048
-0.047
-0.047
-0.046
-0.046
-0.046
-0.046
-0.046
-0.045
-0.045
-0.044
-0.043
-0.043
-0.043
-0.042
-0.04
-0.037
-0.032
-0.025
-0.018
-0.01
-0.002
0.005
0.011
0.016
0.02
0.021
0.022
0.021
0.02
0.017
0.013
0.007
0.001
-0.007
-0.015
-0.023
-0.029
-0.034
-0.039
-0.041
-0.042
-0.043
-0.043
-0.043
-0.043
-0.043
-0.043
-0.042
-0.042
-0.041
-0.04
-0.039
-0.039
-0.039
-0.039
-0.039
-0.04
-0.043
-0.047
-0.043
-0.028
-0.001
0.039
0.092
0.147
0.202
0.256
0.31
0.356
0.383
0.36
0.338
0.293
0.231
0.167
0.128
0.063
0.001
-0.052
-0.087
-0.105
-0.107
-0.095
-0.082
-0.073
-0.068
-0.067
-0.066
-0.065
-0.064
-0.064
-0.063
-0.062
-0.061
-0.061
-0.061
-0.06
-0.06
-0.06
-0.059
-0.054
-0.05
-0.044
-0.037
-0.028
-0.023
-0.014
-0.005
0.003
0.011
0.021
0.03
0.039
0.048
0.057
0.064
0.07
0.074
0.078
0.079
0.08
0.081
0.083
0.083
0.082
0.081
0.079
0.076
0.073
0.07
0.067
0.062
0.057
0.049
0.042
0.031
0.021
0.011
0.002
-0.008
-0.016
-0.024
-0.033
-0.042
-0.05
-0.058
-0.064
-0.068
-0.07
-0.07
-0.069
-0.068
-0.067
-0.066
-0.066
-0.066
-0.064
-0.064
-0.063
-0.062
-0.061
-0.061
-0.06
-0.06
-0.06
-0.059
-0.058
-0.057
-0.056
-0.056
-0.055
-0.055
-0.054
-0.053
-0.052
-0.052
-0.051
-0.051
-0.05
-0.051
-0.051
-0.051
-0.05
-0.05
-0.049
-0.048
-0.047
-0.047
-0.047
-0.046
-0.045
-0.045
-0.044
-0.043
-0.042
-0.042
-0.042
-0.041
-0.04
-0.04
-0.04
-0.04
-0.038
-0.036
-0.031
-0.024
-0.017
-0.008
0.001
0.009
0.015
0.021
0.025
0.027
0.028
0.027
0.026
0.023
0.019
0.013
0.007
-0
-0.009
-0.016
-0.022
-0.028
-0.032
-0.035
-0.035
-0.035
-0.035
-0.034
-0.033
-0.033
-0.033
-0.033
-0.033
-0.033
-0.033
-0.032
-0.032
-0.031
-0.031
-0.03
-0.031
-0.033
-0.037
-0.035
-0.021
0.006
0.046
0.098
0.153
0.208
0.262
0.315
0.363
0.391
0.395
0.375
0.331
0.27
0.205
0.14
0.076
0.013
-0.038
-0.074
-0.094
-0.096
-0.085
-0.072
-0.063
-0.057
-0.056
-0.055
-0.054
-0.054
-0.053
-0.053
-0.052
-0.052
-0.051
-0.051
-0.05
-0.049
-0.049
-0.048
-0.045
-0.041
-0.036
-0.029
-0.02
-0.011
-0.003
0.006
0.015
0.023
0.031
0.041
0.05
0.059
0.068
0.076
0.082
0.086
0.089
0.091
0.092
0.093
0.094
0.095
0.094
0.092
0.091
0.088
0.085
0.082
0.079
0.075
0.068
0.061
0.048
0.038
0.028
0.019
0.01
0.005
-0.004
-0.011
-0.02
-0.028
-0.037
-0.044
-0.051
-0.056
-0.058
-0.058
-0.058
-0.057
-0.057
-0.056
-0.056
-0.055
-0.054
-0.054
-0.053
-0.052
-0.051
-0.051
-0.05
-0.049
-0.048
-0.048
-0.048
-0.047
-0.046
-0.045
-0.045
-0.044
-0.043
-0.043
-0.043
-0.042
-0.042
-0.042
-0.042
-0.042
-0.041
-0.041
-0.04
-0.039
-0.039
-0.038
-0.038
-0.037
-0.037
-0.037
-0.036
-0.036
-0.037
-0.037
-0.036
-0.036
-0.035
-0.034
-0.034
-0.034
-0.033
-0.033
-0.031
-0.028
-0.023
-0.017
-0.01
-0.002
0.006
0.014
0.021
0.026
0.031
0.033
0.034
0.033
0.031
0.028
0.024
0.018
0.012
0.005
-0.004
-0.012
-0.018
-0.024
-0.028
-0.03
-0.031
-0.032
-0.032
-0.032
-0.032
-0.031
-0.031
-0.031
-0.03
-0.03
-0.03
-0.03
-0.03
-0.03
-0.03
-0.029
-0.03
-0.032
-0.036
-0.034
-0.021
0.004
0.042
0.094
0.15
0.205
0.259
0.312
0.36
0.388
0.394
0.375
0.332
0.271
0.206
0.142
0.077
0.014
-0.038
-0.076
-0.097
-0.1
-0.09
-0.078
-0.069
-0.063
-0.061
-0.06
-0.059
-0.059
-0.058
-0.058
-0.058
-0.057
-0.057
-0.056
-0.055
-0.054
-0.054
-0.053
-0.051
-0.049
-0.044
-0.037
-0.026
-0.017
-0.008
0.001
0.009
0.014
0.022
0.031
0.04
0.049
0.058
0.066
0.072
0.076
0.08
0.082
0.083
0.084
0.085
0.085
0.085
0.084
0.082
0.079
0.076
0.073
0.069
0.064
0.058
0.051
0.042
0.032
0.022
0.012
0.003
-0.006
-0.015
-0.023
-0.03
-0.039
-0.047
-0.055
-0.062
-0.067
-0.069
-0.07
-0.07
-0.069
-0.068
-0.068
-0.068
-0.067
-0.066
-0.066
-0.066
-0.065
-0.065
-0.064
-0.064
-0.063
-0.062
-0.061
-0.061
-0.06
-0.059
-0.059
-0.058
-0.057
-0.056
-0.056
-0.056
-0.056
-0.056
-0.056
-0.056
-0.055
-0.054
-0.054
-0.053
-0.052
-0.052
-0.052
-0.051
-0.05
-0.05
-0.05
-0.049
-0.049
-0.049
-0.049
-0.048
-0.048
-0.048
-0.047
-0.047
-0.046
-0.046
-0.045
-0.044
-0.041
-0.037
-0.03
-0.022
-0.013
-0.005
0.003
0.009
0.013
0.018
0.02
0.021
0.02
0.02
0.017
0.013
0.008
0.002
-0.006
-0.015
-0.022
-0.029
-0.035
-0.039
-0.042
-0.043
-0.043
-0.043
-0.043
-0.042
-0.041
-0.041
-0.041
-0.04
-0.04
-0.04
-0.04
-0.04
-0.04
-0.039
-0.039
-0.039
-0.041
-0.045
-0.044
-0.031
-0.007
0.031
0.082
0.137
0.192
0.247
0.3
0.349
0.379
0.386
0.37
0.329
0.269
0.18
0.116
0.051
-0.012
-0.066
-0.078
-0.1
-0.105
-0.096
-0.083
-0.073
-0.067
-0.064
-0.064
-0.063
-0.062
-0.062
-0.061
-0.06
-0.06
-0.059
-0.059
-0.058
-0.058
-0.058
-0.058
-0.056
-0.053
-0.048
-0.041
-0.028
-0.019
-0.01
-0
0.008
0.013
0.022
0.031
0.04
0.049
0.058
0.066
0.072
0.077
0.08
0.083
0.084
0.085
0.087
0.087
0.086
0.085
0.083
0.08
0.077
0.074
0.071
0.067
0.061
0.054
0.046
0.037
0.026
0.016
0.003
-0.007
-0.016
-0.023
-0.031
-0.035
-0.043
-0.051
-0.057
-0.062
-0.064
-0.065
-0.064
-0.064
-0.063
-0.062
-0.062
-0.062
-0.061
-0.06
-0.06
-0.059
-0.057
-0.056
-0.056
-0.056
-0.055
-0.055
-0.054
-0.053
-0.053
-0.053
-0.052
-0.051
-0.05
-0.049
-0.049
-0.048
-0.048
-0.047
-0.046
-0.045
-0.045
-0.045
-0.044
-0.044
-0.043
-0.043
-0.042
-0.042
-0.042
-0.041
-0.04
-0.04
-0.039
-0.038
-0.038
-0.038
-0.037
-0.037
-0.036
-0.036
-0.036
-0.035
-0.033
-0.03
-0.025
-0.019
-0.011
-0.004
0.004
0.012
0.018
0.023
0.028
0.031
0.032
0.032
0.032
0.029
0.025
0.02
0.014
0.006
-0.002
-0.01
-0.016
-0.022
-0.026
-0.029
-0.03
-0.03
-0.03
-0.03
-0.03
-0.03
-0.031
-0.03
-0.029
-0.029
-0.028
-0.028
-0.027
-0.027
-0.027
-0.027
-0.027
-0.029
-0.033
-0.032
-0.02
0.004
0.041
0.091
0.146
0.2
0.254
0.308
0.357
0.39
0.4
0.385
0.346
0.286
0.196
0.131
0.066
0.003
-0.051
-0.064
-0.087
-0.092
-0.084
-0.071
-0.06
-0.054
-0.051
-0.051
-0.051
-0.05
-0.05
-0.049
-0.048
-0.048
-0.048
-0.047
-0.046
-0.046
-0.045
-0.044
-0.043
-0.04
-0.035
-0.028
-0.019
-0.01
-0.002
0.007
0.015
0.023
0.032
0.041
0.051
0.06
0.068
0.076
0.082
0.086
0.09
0.092
0.094
0.095
0.096
0.096
0.096
0.094
0.092
0.09
0.086
0.084
0.081
0.076
0.07
0.063
0.055
0.044
0.034
0.024
0.012
0.002
-0.007
-0.014
-0.022
-0.027
-0.036
-0.044
-0.05
-0.055
-0.058
-0.058
-0.058
-0.058
-0.057
-0.057
-0.056
-0.055
-0.055
-0.054
-0.054
-0.054
-0.053
-0.053
-0.053
-0.052
-0.051
-0.051
-0.05
-0.05
-0.049
-0.049
-0.049
-0.048
-0.048
-0.047
-0.047
-0.046
-0.045
-0.045
-0.045
-0.045
-0.045
-0.045
-0.044
-0.043
-0.043
-0.042
-0.042
-0.041
-0.041
-0.041
-0.04
-0.04
-0.04
-0.04
-0.039
-0.039
-0.039
-0.039
-0.039
-0.039
-0.039
-0.039
-0.033
-0.031
-0.026
-0.02
-0.012
-0.008
-0
0.007
0.013
0.018
0.023
0.026
0.027
0.027
0.026
0.023
0.019
0.014
0.008
0.001
-0.007
-0.016
-0.023
-0.029
-0.034
-0.037
-0.038
-0.038
-0.039
-0.039
-0.039
-0.038
-0.038
-0.037
-0.037
-0.037
-0.036
-0.036
-0.036
-0.035
-0.035
-0.035
-0.035
-0.038
-0.043
-0.042
-0.031
-0.008
0.05
0.099
0.154
0.208
0.262
0.292
0.343
0.376
0.387
0.373
0.336
0.277
0.213
0.148
0.083
0.02
-0.036
-0.077
-0.101
-0.108
-0.099
-0.086
-0.076
-0.07
-0.067
-0.067
-0.066
-0.066
-0.065
-0.065
-0.064
-0.064
-0.063
-0.063
-0.061
-0.061
-0.061
-0.06
-0.058
-0.055
-0.051
-0.044
-0.036
-0.027
-0.018
-0.01
0.002
0.009
0.018
0.028
0.037
0.043
0.052
0.059
0.065
0.07
0.074
0.076
0.078
0.078
0.079
0.079
0.079
0.078
0.076
0.074
0.07
0.067
0.064
0.06
0.054
0.047
0.04
0.03
0.019
0.01
0.001
-0.009
-0.018
-0.025
-0.033
-0.041
-0.05
-0.058
-0.064
-0.069
-0.072
-0.073
-0.072
-0.072
-0.071
-0.071
-0.071
-0.07
-0.069
-0.069
-0.069
-0.068
-0.067
-0.066
-0.066
-0.065
-0.065
-0.064
-0.064
-0.063
-0.062
-0.062
-0.061
-0.061
-0.061
-0.06
-0.06
-0.059
-0.058
-0.057
-0.057
-0.056
-0.056
-0.056
-0.055
-0.054
-0.054
-0.053
-0.052
-0.052
-0.052
-0.052
-0.051
-0.051
-0.051
-0.05
-0.049
-0.048
-0.048
-0.048
-0.047
-0.047
-0.047
-0.047
-0.042
-0.039
-0.035
-0.029
-0.022
-0.017
-0.009
-0.001
0.006
0.012
0.017
0.02
0.021
0.02
0.019
0.017
0.013
0.008
0.002
-0.005
-0.013
-0.021
-0.028
-0.034
-0.039
-0.042
-0.044
-0.043
-0.044
-0.044
-0.043
-0.043
-0.043
-0.042
-0.041
-0.041
-0.041
-0.041
-0.039
-0.039
-0.039
-0.038
-0.038
-0.04
-0.045
-0.045
-0.034
-0.012
0.023
0.072
0.127
0.182
0.236
0.29
0.34
0.376
0.388
0.376
0.34
0.283
0.218
0.153
0.089
0.025
-0.025
-0.067
-0.092
-0.099
-0.092
-0.085
-0.075
-0.068
-0.065
-0.064
-0.063
-0.062
-0.061
-0.061
-0.061
-0.06
-0.06
-0.06
-0.059
-0.058
-0.058
-0.057
-0.055
-0.052
-0.047
-0.041
-0.032
-0.023
-0.014
-0.005
0.004
0.012
0.02
0.03
0.039
0.048
0.057
0.066
0.072
0.077
0.08
0.083
0.084
0.085
0.086
0.086
0.086
0.085
0.084
0.082
0.079
0.076
0.073
0.068
0.062
0.056
0.048
0.038
0.027
0.017
0.008
-0.001
-0.009
-0.016
-0.029
-0.037
-0.046
-0.054
-0.06
-0.061
-0.03
0.032
0.036
0.037
0.038
0.045
0.083
0.103
0.104
0.104
0.106
0.118
0.148
0.15
0.15
0.152
0.152
0.172
0.175
0.176
0.178
0.176
0.213
0.236
0.366
0.37
0.367
0.366
0.37
0.238
0.248
0.246
0.247
0.257
0.263
0.291
0.314
0.313
0.32
0.327
0.349
0.399
0.41
0.414
0.431
0.449
0.457
0.464
0.472
0.499
0.502
0.508
0.536
0.546
0.572
0.577
0.579
0.6
0.623
0.645
0.651
0.652
0.664
0.712
0.745
0.742
0.735
0.755
0.77
0.762
0.758
0.747
0.74
0.74
0.727
0.716
0.702
0.688
0.682
0.674
0.673
0.667
0.659
0.658
0.655
0.661
0.657
0.649
0.662
0.66
0.671
0.667
0.662
0.651
0.65
0.651
0.644
0.636
0.631
0.631
0.646
0.661
0.689
0.729
0.779
0.827
0.875
0.921
0.968
1.003
1.013
0.996
0.955
0.905
0.854
0.802
0.732
0.662
0.611
0.626
0.612
0.597
0.597
0.631
0.671
0.671
0.669
0.664
0.657
0.649
0.642
0.638
0.632
0.625
0.617
0.611
0.607
0.602
0.594
0.585
0.579
0.576
0.575
0.574
0.574
0.577
0.58
0.584
0.586
0.587
0.59
0.595
0.604
0.607
0.609
0.612
0.615
0.612
0.609
0.605
0.601
0.597
0.594
0.589
0.582
0.575
0.57
0.565
0.556
0.547
0.54
0.532
0.522
0.51
0.497
0.483
0.469
0.456
0.442
0.427
0.413
0.401
0.387
0.374
0.359
0.348
0.338
0.333
0.324
0.318
0.315
0.314
0.312
0.309
0.305
0.301
0.298
0.295
0.291
0.288
0.285
0.284
0.281
0.278
0.274
0.271
0.269
0.267
0.264
0.261
0.257
0.255
0.254
0.25
0.246
0.243
0.241
0.239
0.235
0.233
0.23
0.228
0.226
0.224
0.22
0.218
0.216
0.214
0.211
0.208
0.206
0.205
0.203
0.199
0.196
0.193
0.19
0.189
0.187
0.184
0.181
0.181
0.18
0.18
0.182
0.186
0.195
0.201
0.207
0.212
0.217
0.217
0.219
0.22
0.219
0.217
0.216
0.213
0.207
0.201
0.194
0.185
0.175
0.164
0.154
0.145
0.139
0.134
0.131
0.127
0.125
0.124
0.123
0.122
0.12
0.12
0.12
0.119
0.118
0.115
0.113
0.111
0.109
0.107
0.105
0.102
0.097
0.095
0.103
0.121
0.153
0.199
0.252
0.306
0.359
0.411
0.461
0.498
0.512
0.501
0.467
0.41
0.345
0.278
0.213
0.148
0.089
0.044
0.014
0.002
0.006
0.019
0.029
0.036
0.04
0.04
0.04
0.039
0.038
0.035
0.035
0.035
0.035
0.035
0.035
0.034
0.034
0.034
0.035
0.036
0.039
0.045
0.053
0.061
0.068
0.075
0.083
0.091
0.098
0.106
0.117
0.125
0.133
0.141
0.146
0.147
0.151
0.153
0.154
0.154
0.154
0.155
0.154
0.152
0.15
0.148
0.144
0.141
0.137
0.132
0.126
0.119
0.111
0.101
0.089
0.079
0.069
0.059
0.049
0.04
0.032
0.024
0.015
0.007
-0.001
-0.007
-0.012
-0.014
-0.013
-0.013
-0.012
-0.011
-0.011
-0.011
-0.011
-0.011
-0.012
-0.012
-0.011
-0.011
-0.011
-0.011
-0.011
-0.011
-0.012
-0.012
-0.012
-0.013
-0.013
-0.013
-0.013
-0.013
-0.012
-0.012
-0.011
-0.011
-0.01
-0.009
-0.009
-0.008
-0.009
-0.009
-0.01
-0.011
-0.011
-0.01
-0.01
-0.009
-0.009
-0.009
-0.01
-0.01
-0.009
-0.01
-0.01
-0.01
-0.009
-0.009
-0.009
-0.009
-0.008
-0.006
-0.002
0.003
0.01
0.018
0.026
0.034
0.041
0.047
0.051
0.055
0.057
0.057
0.055
0.053
0.05
0.044
0.037
0.03
0.022
0.013
0.006
-0
-0.005
-0.009
-0.01
-0.011
-0.012
-0.013
-0.014
-0.014
-0.014
-0.014
-0.013
-0.012
-0.012
-0.012
-0.01
-0.01
-0.01
-0.009
-0.008
-0.01
-0.014
-0.016
-0.009
0.011
0.042
0.088
0.142
0.197
0.251
0.304
0.355
0.395
0.387
0.38
0.349
0.296
0.23
0.192
0.127
0.063
0.004
-0.04
-0.069
-0.081
-0.077
-0.065
-0.054
-0.047
-0.042
-0.041
-0.04
-0.04
-0.039
-0.038
-0.037
-0.037
-0.036
-0.036
-0.035
-0.035
-0.035
-0.035
-0.034
-0.032
-0.029
-0.023
-0.016
-0.007
0.002
0.011
0.019
0.027
0.035
0.044
0.053
0.062
0.071
0.08
0.088
0.093
0.096
0.099
0.1
0.101
0.101
0.102
0.102
0.103
0.102
0.101
0.099
0.095
0.091
0.086
0.08
0.073
0.058
0.047
0.036
0.024
0.013
0.009
0
-0.008
-0.014
-0.022
-0.03
-0.037
-0.044
-0.049
-0.052
-0.053
-0.052
-0.052
-0.052
-0.051
-0.051
-0.051
-0.049
-0.049
-0.048
-0.047
-0.047
-0.047
-0.046
-0.045
-0.045
-0.044
-0.044
-0.044
-0.044
-0.043
-0.042
-0.041
-0.038
-0.037
-0.036
-0.035
-0.035
-0.035
-0.036
-0.036
-0.035
-0.035
-0.035
-0.034
-0.033
-0.032
-0.032
-0.032
-0.032
-0.033
-0.033
-0.032
-0.032
-0.031
-0.03
-0.03
-0.03
-0.031
-0.031
-0.031
-0.031
-0.031
-0.029
-0.027
-0.024
-0.019
-0.012
-0.004
0.004
0.012
0.019
0.025
0.029
0.033
0.035
0.035
0.034
0.032
0.028
0.022
0.016
0.009
0.001
-0.007
-0.014
-0.021
-0.026
-0.029
-0.031
-0.032
-0.033
-0.033
-0.033
-0.033
-0.033
-0.032
-0.03
-0.03
-0.031
-0.031
-0.032
-0.033
-0.033
-0.032
-0.032
-0.032
-0.036
-0.039
-0.031
-0.013
0.019
0.065
0.12
0.175
0.23
0.283
0.335
0.375
0.369
0.363
0.334
0.282
0.217
0.178
0.113
0.049
-0.011
-0.058
-0.088
-0.102
-0.097
-0.084
-0.072
-0.064
-0.06
-0.06
-0.06
-0.06
-0.059
-0.058
-0.058
-0.057
-0.057
-0.058
-0.058
-0.057
-0.057
-0.057
-0.055
-0.053
-0.049
-0.043
-0.035
-0.027
-0.018
-0.01
-0.001
0.008
0.016
0.025
0.034
0.043
0.051
0.059
0.067
0.072
0.076
0.08
0.083
0.084
0.084
0.086
0.085
0.084
0.083
0.081
0.079
0.075
0.072
0.069
0.063
0.056
0.049
0.039
0.029
0.018
0.009
-0.001
-0.011
-0.02
-0.028
-0.037
-0.046
-0.054
-0.06
-0.066
-0.07
-0.072
-0.071
-0.071
-0.07
-0.069
-0.067
-0.067
-0.066
-0.065
-0.065
-0.065
-0.064
-0.063
-0.062
-0.061
-0.059
-0.058
-0.058
-0.057
-0.057
-0.057
-0.058
-0.058
-0.058
-0.058
-0.058
-0.058
-0.057
-0.057
-0.056
-0.056
-0.055
-0.055
-0.055
-0.054
-0.053
-0.053
-0.053
-0.053
-0.053
-0.054
-0.054
-0.054
-0.054
-0.053
-0.052
-0.051
-0.05
-0.051
-0.051
-0.051
-0.051
-0.05
-0.049
-0.047
-0.044
-0.038
-0.03
-0.021
-0.012
-0.003
0.006
0.012
0.017
0.021
0.023
0.022
0.021
0.02
0.016
0.012
0.006
0
-0.008
-0.016
-0.024
-0.031
-0.038
-0.042
-0.044
-0.045
-0.046
-0.046
-0.046
-0.046
-0.045
-0.045
-0.044
-0.043
-0.043
-0.043
-0.042
-0.042
-0.042
-0.041
-0.04
-0.042
-0.046
-0.049
-0.041
-0.023
0.007
0.053
0.108
0.162
0.217
0.272
0.325
0.368
0.389
0.385
0.356
0.304
0.239
0.174
0.109
0.043
-0.019
-0.066
-0.097
-0.11
-0.106
-0.093
-0.081
-0.073
-0.069
-0.068
-0.067
-0.066
-0.064
-0.064
-0.063
-0.062
-0.062
-0.061
-0.06
-0.06
-0.059
-0.059
-0.058
-0.055
-0.051
-0.044
-0.036
-0.027
-0.018
-0.01
-0.002
0.005
0.014
0.023
0.034
0.043
0.053
0.063
0.071
0.076
0.079
0.082
0.083
0.083
0.084
0.086
0.086
0.087
0.086
0.084
0.082
0.078
0.074
0.07
0.064
0.057
0.049
0.039
0.028
0.018
0.008
-0.002
-0.015
-0.024
-0.032
-0.04
-0.048
-0.052
-0.058
-0.063
-0.067
-0.068
-0.067
-0.067
-0.067
-0.066
-0.066
-0.066
-0.065
-0.065
-0.064
-0.064
-0.064
-0.064
-0.064
-0.063
-0.062
-0.061
-0.059
-0.057
-0.055
-0.054
-0.052
-0.052
-0.052
-0.053
-0.055
-0.055
-0.054
-0.054
-0.052
-0.05
-0.05
-0.05
-0.049
-0.048
-0.047
-0.045
-0.044
-0.043
-0.043
-0.043
-0.043
-0.041
-0.041
-0.041
-0.04
-0.04
-0.04
-0.039
-0.039
-0.039
-0.039
-0.038
-0.038
-0.036
-0.032
-0.026
-0.018
-0.01
-0.001
0.007
0.015
0.021
0.026
0.03
0.032
0.032
0.031
0.03
0.027
0.022
0.016
0.009
0.001
-0.007
-0.015
-0.021
-0.027
-0.031
-0.033
-0.035
-0.036
-0.037
-0.036
-0.036
-0.037
-0.036
-0.035
-0.034
-0.033
-0.032
-0.031
-0.031
-0.03
-0.03
-0.033
-0.034
-0.038
-0.041
-0.035
-0.013
0.016
0.061
0.116
0.173
0.23
0.285
0.338
0.383
0.406
0.404
0.377
0.327
0.262
0.194
0.128
0.062
-0.001
-0.05
-0.083
-0.097
-0.096
-0.083
-0.071
-0.063
-0.059
-0.058
-0.057
-0.056
-0.055
-0.053
-0.053
-0.052
-0.051
-0.052
-0.051
-0.05
-0.05
-0.05
-0.049
-0.046
-0.043
-0.037
-0.029
-0.02
-0.012
-0.004
0.005
0.013
0.023
0.034
0.044
0.054
0.064
0.073
0.08
0.085
0.089
0.091
0.093
0.093
0.095
0.096
0.097
0.097
0.097
0.095
0.092
0.088
0.083
0.078
0.072
0.065
0.057
0.048
0.038
0.028
0.018
0.008
-0.003
-0.012
-0.02
-0.028
-0.037
-0.045
-0.052
-0.058
-0.063
-0.065
-0.065
-0.064
-0.064
-0.063
-0.062
-0.061
-0.061
-0.06
-0.059
-0.059
-0.058
-0.057
-0.056
-0.055
-0.054
-0.053
-0.054
-0.054
-0.054
-0.054
-0.054
-0.054
-0.053
-0.052
-0.051
-0.051
-0.05
-0.048
-0.048
-0.046
-0.045
-0.045
-0.045
-0.045
-0.044
-0.044
-0.044
-0.044
-0.043
-0.043
-0.044
-0.044
-0.044
-0.044
-0.043
-0.042
-0.041
-0.041
-0.04
-0.04
-0.04
-0.039
-0.038
-0.036
-0.033
-0.029
-0.022
-0.015
-0.006
0.002
0.01
0.017
0.022
0.026
0.028
0.029
0.028
0.027
0.024
0.019
0.012
0.005
-0.003
-0.012
-0.021
-0.027
-0.033
-0.038
-0.039
-0.04
-0.041
-0.041
-0.04
-0.04
-0.039
-0.039
-0.038
-0.038
-0.037
-0.037
-0.037
-0.036
-0.035
-0.035
-0.038
-0.038
-0.041
-0.045
-0.039
-0.019
0.009
0.052
0.107
0.164
0.22
0.276
0.332
0.378
0.402
0.402
0.376
0.325
0.26
0.192
0.124
0.057
-0.008
-0.059
-0.092
-0.108
-0.107
-0.095
-0.082
-0.074
-0.069
-0.067
-0.067
-0.066
-0.065
-0.065
-0.065
-0.065
-0.064
-0.064
-0.064
-0.062
-0.06
-0.06
-0.059
-0.056
-0.053
-0.048
-0.04
-0.031
-0.022
-0.013
-0.004
0.005
0.013
0.021
0.03
0.039
0.048
0.057
0.065
0.071
0.075
0.078
0.08
0.081
0.082
0.084
0.084
0.084
0.082
0.08
0.076
0.073
0.07
0.066
0.061
0.056
0.049
0.04
0.028
0.017
0.006
-0.004
-0.014
-0.022
-0.029
-0.037
-0.045
-0.053
-0.059
-0.066
-0.07
-0.072
-0.073
-0.073
-0.073
-0.072
-0.071
-0.071
-0.071
-0.07
-0.069
-0.068
-0.066
-0.065
-0.065
-0.066
-0.066
-0.066
-0.066
-0.066
-0.065
-0.064
-0.063
-0.061
-0.06
-0.058
-0.059
-0.058
-0.057
-0.057
-0.057
-0.055
-0.055
-0.055
-0.056
-0.056
-0.055
-0.056
-0.056
-0.055
-0.054
-0.054
-0.052
-0.051
-0.05
-0.05
-0.05
-0.051
-0.052
-0.051
-0.05
-0.049
-0.048
-0.046
-0.046
-0.045
-0.041
-0.036
-0.03
-0.022
-0.013
-0.005
0.003
0.011
0.016
0.02
0.02
0.021
0.02
0.018
0.014
0.01
0.004
-0.003
-0.01
-0.018
-0.026
-0.032
-0.037
-0.041
-0.042
-0.042
-0.041
-0.041
-0.041
-0.041
-0.042
-0.043
-0.043
-0.044
-0.044
-0.043
-0.042
-0.04
-0.039
-0.038
-0.037
-0.037
-0.04
-0.044
-0.039
-0.023
0.006
0.049
0.105
0.163
0.221
0.278
0.333
0.38
0.405
0.406
0.382
0.333
0.268
0.2
0.133
0.067
0.003
-0.049
-0.085
-0.103
-0.103
-0.091
-0.078
-0.068
-0.062
-0.061
-0.06
-0.059
-0.058
-0.058
-0.058
-0.058
-0.057
-0.057
-0.055
-0.054
-0.053
-0.053
-0.052
-0.051
-0.048
-0.043
-0.035
-0.025
-0.016
-0.007
0.002
0.01
0.018
0.028
0.038
0.048
0.059
0.068
0.077
0.083
0.088
0.092
0.095
0.095
0.096
0.097
0.097
0.095
0.093
0.091
0.088
0.085
0.082
0.078
0.073
0.066
0.059
0.049
0.037
0.026
0.016
0.005
-0.003
-0.011
-0.018
-0.026
-0.035
-0.044
-0.052
-0.058
-0.061
-0.062
-0.062
-0.061
-0.06
-0.061
-0.06
-0.061
-0.061
-0.06
-0.058
-0.057
-0.056
-0.054
-0.054
-0.054
-0.053
-0.052
-0.052
-0.05
-0.049
-0.048
-0.048
-0.048
-0.048
-0.048
-0.047
-0.046
-0.045
-0.044
-0.044
-0.043
-0.042
-0.042
-0.042
-0.042
-0.042
-0.042
-0.042
-0.042
-0.041
-0.04
-0.04
-0.039
-0.038
-0.038
-0.038
-0.039
-0.038
-0.038
-0.037
-0.036
-0.035
-0.034
-0.032
-0.03
-0.027
-0.021
-0.015
-0.007
0.001
0.01
0.019
0.026
0.031
0.035
0.036
0.036
0.034
0.033
0.03
0.025
0.02
0.014
0.006
-0.003
-0.011
-0.018
-0.024
-0.027
-0.029
-0.03
-0.031
-0.031
-0.031
-0.031
-0.031
-0.03
-0.029
-0.029
-0.028
-0.028
-0.028
-0.028
-0.029
-0.028
-0.027
-0.026
-0.028
-0.031
-0.005
0.01
0.035
0.077
0.132
0.166
0.223
0.281
0.337
0.386
0.414
0.417
0.393
0.345
0.28
0.212
0.145
0.079
0.013
-0.042
-0.078
-0.098
-0.1
-0.088
-0.076
-0.066
-0.06
-0.057
-0.057
-0.055
-0.055
-0.054
-0.054
-0.053
-0.052
-0.052
-0.052
-0.052
-0.051
-0.05
-0.05
-0.048
-0.044
-0.04
-0.033
-0.023
-0.014
-0.005
0.005
0.014
0.022
0.031
0.042
0.051
0.061
0.071
0.078
0.083
0.088
0.091
0.093
0.095
0.096
0.095
0.094
0.093
0.09
0.088
0.086
0.083
0.08
0.077
0.072
0.065
0.057
0.048
0.037
0.026
0.016
0.006
-0.004
-0.013
-0.021
-0.03
-0.039
-0.049
-0.057
-0.063
-0.068
-0.07
-0.07
-0.068
-0.067
-0.067
-0.066
-0.065
-0.064
-0.063
-0.061
-0.061
-0.061
-0.061
-0.061
-0.061
-0.061
-0.059
-0.059
-0.059
-0.058
-0.058
-0.058
-0.058
-0.057
-0.057
-0.056
-0.055
-0.053
-0.052
-0.051
-0.05
-0.049
-0.048
-0.048
-0.047
-0.048
-0.048
-0.049
-0.05
-0.049
-0.049
-0.048
-0.047
-0.046
-0.045
-0.045
-0.044
-0.044
-0.044
-0.044
-0.044
-0.044
-0.043
-0.042
-0.04
-0.037
-0.032
-0.026
-0.018
-0.009
-0.001
0.007
0.014
0.019
0.022
0.025
0.026
0.025
0.023
0.017
0.013
0.007
0.001
-0.007
-0.013
-0.022
-0.029
-0.036
-0.04
-0.042
-0.043
-0.044
-0.044
-0.044
-0.044
-0.044
-0.043
-0.043
-0.043
-0.042
-0.042
-0.042
-0.041
-0.041
-0.041
-0.04
-0.039
-0.041
-0.045
-0.016
-0.002
0.025
0.066
0.12
0.152
0.208
0.263
0.316
0.365
0.395
0.401
0.381
0.335
0.272
0.204
0.135
0.067
0.002
-0.052
-0.09
-0.111
-0.114
-0.103
-0.09
-0.081
-0.075
-0.073
-0.073
-0.072
-0.07
-0.07
-0.069
-0.068
-0.067
-0.067
-0.067
-0.065
-0.064
-0.064
-0.063
-0.062
-0.059
-0.054
-0.046
-0.036
-0.026
-0.016
-0.005
0.004
0.012
0.021
0.03
0.039
0.049
0.058
0.066
0.073
0.077
0.079
0.081
0.082
0.083
0.084
0.085
0.085
0.083
0.082
0.08
0.077
0.074
0.07
0.065
0.059
0.052
0.043
0.032
0.021
0.011
0.001
-0.009
-0.017
-0.024
-0.033
-0.041
-0.05
-0.059
-0.065
-0.07
-0.072
-0.072
-0.071
-0.069
-0.068
-0.068
-0.068
-0.068
-0.068
-0.067
-0.066
-0.065
-0.064
-0.063
-0.063
-0.062
-0.062
-0.061
-0.061
-0.06
-0.06
-0.06
-0.06
-0.058
-0.058
-0.057
-0.057
-0.056
-0.056
-0.056
-0.055
-0.054
-0.054
-0.053
-0.052
-0.051
-0.051
-0.051
-0.05
-0.05
-0.049
-0.049
-0.049
-0.049
-0.048
-0.047
-0.046
-0.045
-0.045
-0.044
-0.044
-0.044
-0.044
-0.043
-0.041
-0.038
-0.033
-0.026
-0.018
-0.009
-0
0.008
0.015
0.021
0.025
0.028
0.029
0.029
0.027
0.021
0.017
0.011
0.005
-0.002
-0.007
-0.015
-0.022
-0.027
-0.031
-0.034
-0.035
-0.036
-0.037
-0.037
-0.037
-0.036
-0.036
-0.035
-0.035
-0.035
-0.034
-0.034
-0.034
-0.034
-0.033
-0.032
-0.032
-0.034
-0.037
-0.012
0.003
0.029
0.07
0.125
0.159
0.215
0.272
0.329
0.38
0.41
0.416
0.398
0.353
0.289
0.222
0.155
0.087
0.021
-0.035
-0.075
-0.096
-0.1
-0.09
-0.076
-0.066
-0.06
-0.057
-0.056
-0.056
-0.054
-0.054
-0.054
-0.054
-0.054
-0.054
-0.054
-0.053
-0.052
-0.05
-0.05
-0.048
-0.046
-0.041
-0.034
-0.026
-0.016
-0.006
0.004
0.013
0.023
0.032
0.042
0.051
0.06
0.068
0.075
0.08
0.085
0.088
0.091
0.092
0.093
0.094
0.095
0.095
0.095
0.093
0.091
0.088
0.085
0.081
0.074
0.067
0.059
0.051
0.041
0.033
0.023
0.013
0.003
-0.005
-0.013
-0.022
-0.032
-0.041
-0.049
-0.056
-0.06
-0.061
-0.06
-0.059
-0.06
-0.06
-0.059
-0.059
-0.058
-0.057
-0.055
-0.054
-0.054
-0.054
-0.053
-0.053
-0.053
-0.052
-0.051
-0.05
-0.049
-0.049
-0.048
-0.047
-0.046
-0.045
-0.044
-0.045
-0.044
-0.044
-0.045
-0.044
-0.042
-0.042
-0.042
-0.041
-0.04
-0.04
-0.04
-0.039
-0.037
-0.037
-0.036
-0.035
-0.034
-0.035
-0.035
-0.035
-0.035
-0.035
-0.034
-0.034
-0.034
-0.034
-0.034
-0.033
-0.03
-0.025
-0.019
-0.011
-0.002
0.006
0.014
0.021
0.026
0.031
0.034
0.035
0.034
0.034
0.032
0.028
0.022
0.016
0.008
-0.002
-0.011
-0.018
-0.024
-0.03
-0.033
-0.034
-0.035
-0.036
-0.036
-0.035
-0.035
-0.034
-0.032
-0.032
-0.032
-0.032
-0.031
-0.031
-0.031
-0.031
-0.03
-0.03
-0.034
-0.039
-0.036
-0.023
0.003
0.043
0.12
0.177
0.234
0.29
0.346
0.372
0.404
0.411
0.393
0.35
0.287
0.219
0.151
0.083
0.017
-0.039
-0.079
-0.102
-0.106
-0.097
-0.084
-0.074
-0.067
-0.065
-0.065
-0.064
-0.063
-0.062
-0.061
-0.06
-0.059
-0.059
-0.059
-0.058
-0.058
-0.058
-0.058
-0.057
-0.053
-0.047
-0.04
-0.031
-0.022
-0.013
-0.004
0.005
0.013
0.022
0.031
0.04
0.049
0.058
0.065
0.072
0.077
0.081
0.084
0.086
0.088
0.089
0.09
0.089
0.088
0.086
0.083
0.079
0.076
0.072
0.068
0.062
0.055
0.046
0.036
0.025
0.014
0.005
-0.005
-0.014
-0.023
-0.032
-0.042
-0.051
-0.059
-0.065
-0.07
-0.073
-0.073
-0.073
-0.072
-0.071
-0.069
-0.068
-0.067
-0.067
-0.068
-0.069
-0.07
-0.069
-0.068
-0.067
-0.068
-0.067
-0.068
-0.068
-0.067
-0.066
-0.065
-0.065
-0.064
-0.064
-0.064
-0.063
-0.062
-0.062
-0.061
-0.06
-0.06
-0.06
-0.059
-0.059
-0.058
-0.057
-0.056
-0.056
-0.055
-0.055
-0.055
-0.054
-0.053
-0.051
-0.051
-0.051
-0.05
-0.051
-0.051
-0.051
-0.05
-0.049
-0.048
-0.047
-0.043
-0.038
-0.032
-0.024
-0.016
-0.008
-0.001
0.006
0.011
0.016
0.019
0.02
0.019
0.018
0.015
0.01
0.004
-0.003
-0.014
-0.022
-0.031
-0.037
-0.042
-0.042
-0.044
-0.045
-0.045
-0.046
-0.046
-0.046
-0.046
-0.046
-0.044
-0.043
-0.043
-0.043
-0.043
-0.043
-0.042
-0.041
-0.039
-0.038
-0.04
-0.046
-0.045
-0.033
-0.01
0.029
0.103
0.161
0.217
0.274
0.331
0.36
0.395
0.405
0.389
0.349
0.288
0.221
0.154
0.088
0.021
-0.039
-0.081
-0.104
-0.111
-0.102
-0.088
-0.077
-0.071
-0.068
-0.067
-0.066
-0.065
-0.064
-0.064
-0.064
-0.063
-0.063
-0.064
-0.064
-0.063
-0.063
-0.063
-0.061
-0.056
-0.051
-0.043
-0.034
-0.024
-0.015
-0.006
0.002
0.01
0.019
0.029
0.039
0.049
0.058
0.066
0.072
0.076
0.08
0.083
0.085
0.087
0.088
0.089
0.089
0.088
0.087
0.084
0.082
0.078
0.075
0.07
0.065
0.056
0.047
0.036
0.025
0.015
0.006
-0.003
-0.011
-0.019
-0.028
-0.037
-0.045
-0.053
-0.06
-0.065
-0.067
-0.068
-0.067
-0.066
-0.065
-0.064
-0.064
-0.064
-0.063
-0.062
-0.062
-0.061
-0.06
-0.06
-0.059
-0.058
-0.058
-0.056
-0.055
-0.055
-0.054
-0.054
-0.053
-0.052
-0.051
-0.051
-0.051
-0.051
-0.051
-0.051
-0.051
-0.049
-0.049
-0.049
-0.048
-0.046
-0.046
-0.046
-0.045
-0.044
-0.044
-0.043
-0.042
-0.041
-0.04
-0.04
-0.039
-0.038
-0.037
-0.038
-0.038
-0.037
-0.037
-0.036
-0.035
-0.031
-0.027
-0.02
-0.013
-0.004
0.005
0.013
0.02
0.025
0.029
0.033
0.035
0.036
0.035
0.033
0.029
0.023
0.016
0.005
-0.003
-0.012
-0.019
-0.024
-0.025
-0.028
-0.029
-0.029
-0.03
-0.029
-0.028
-0.028
-0.027
-0.026
-0.026
-0.027
-0.027
-0.027
-0.028
-0.029
-0.029
-0.028
-0.029
-0.031
-0.036
-0.035
-0.023
0
0.038
0.091
0.148
0.206
0.264
0.322
0.374
0.409
0.42
0.406
0.364
0.304
0.236
0.168
0.1
0.033
-0.025
-0.067
-0.092
-0.098
-0.09
-0.076
-0.065
-0.058
-0.054
-0.054
-0.053
-0.052
-0.052
-0.052
-0.051
-0.051
-0.051
-0.051
-0.05
-0.051
-0.051
-0.051
-0.048
-0.045
-0.039
-0.033
-0.024
-0.015
-0.006
0.003
0.012
0.02
0.029
0.039
0.047
0.056
0.066
0.074
0.081
0.086
0.09
0.092
0.094
0.095
0.096
0.097
0.097
0.096
0.094
0.092
0.089
0.086
0.082
0.079
0.073
0.066
0.058
0.048
0.037
0.026
0.016
0.006
-0.003
-0.011
-0.02
-0.028
-0.037
-0.046
-0.053
-0.059
-0.062
-0.063
-0.063
-0.063
-0.062
-0.061
-0.06
-0.059
-0.058
-0.056
-0.056
-0.056
-0.056
-0.056
-0.056
-0.056
-0.054
-0.053
-0.053
-0.054
-0.054
-0.053
-0.054
-0.052
-0.051
-0.051
-0.05
-0.048
-0.048
-0.047
-0.047
-0.047
-0.047
-0.047
-0.047
-0.045
-0.045
-0.044
-0.043
-0.042
-0.042
-0.042
-0.041
-0.041
-0.04
-0.04
-0.039
-0.038
-0.038
-0.038
-0.038
-0.038
-0.038
-0.038
-0.038
-0.036
-0.033
-0.027
-0.019
-0.011
-0.002
0.007
0.014
0.02
0.025
0.028
0.029
0.03
0.028
0.025
0.021
0.015
0.007
-0
-0.008
-0.016
-0.023
-0.029
-0.034
-0.037
-0.039
-0.039
-0.04
-0.04
-0.04
-0.04
-0.04
-0.04
-0.04
-0.039
-0.039
-0.037
-0.037
-0.038
-0.038
-0.037
-0.038
-0.04
-0.044
-0.044
-0.033
-0.011
0.026
0.077
0.134
0.19
0.246
0.308
0.362
0.4
0.413
0.401
0.357
0.296
0.227
0.16
0.094
0.026
-0.034
-0.078
-0.104
-0.112
-0.105
-0.091
-0.08
-0.073
-0.071
-0.07
-0.069
-0.068
-0.067
-0.067
-0.067
-0.065
-0.065
-0.064
-0.063
-0.062
-0.062
-0.062
-0.06
-0.054
-0.05
-0.044
-0.036
-0.027
-0.022
-0.014
-0.005
0.003
0.012
0.022
0.033
0.043
0.052
0.061
0.067
0.072
0.075
0.078
0.079
0.08
0.081
0.082
0.082
0.081
0.081
0.08
0.078
0.076
0.073
0.068
0.062
0.055
0.046
0.036
0.025
0.015
0.004
-0.006
-0.016
-0.025
-0.035
-0.044
-0.053
-0.061
-0.067
-0.072
-0.075
-0.075
-0.074
-0.074
-0.073
-0.073
-0.072
-0.072
-0.071
-0.07
-0.069
-0.068
-0.068
-0.068
-0.068
-0.068
-0.068
-0.066
-0.065
-0.065
-0.064
-0.062
-0.062
-0.061
-0.059
-0.058
-0.058
-0.058
-0.058
-0.059
-0.059
-0.058
-0.058
-0.057
-0.057
-0.055
-0.055
-0.053
-0.052
-0.051
-0.051
-0.051
-0.051
-0.05
-0.05
-0.049
-0.049
-0.047
-0.047
-0.047
-0.046
-0.046
-0.046
-0.046
-0.045
-0.043
-0.038
-0.033
-0.025
-0.017
-0.009
-0.001
0.006
0.012
0.018
0.022
0.024
0.025
0.025
0.023
0.018
0.011
0.004
-0.004
-0.012
-0.021
-0.028
-0.034
-0.038
-0.041
-0.042
-0.041
-0.039
-0.04
-0.04
-0.041
-0.042
-0.043
-0.043
-0.042
-0.042
-0.041
-0.04
-0.039
-0.039
-0.037
-0.037
-0.038
-0.042
-0.042
-0.031
-0.01
0.025
0.075
0.132
0.189
0.247
0.303
0.356
0.394
0.407
0.396
0.36
0.302
0.234
0.167
0.098
0.031
-0.028
-0.072
-0.099
-0.109
-0.103
-0.089
-0.078
-0.07
-0.066
-0.065
-0.065
-0.064
-0.064
-0.063
-0.062
-0.061
-0.059
-0.058
-0.057
-0.056
-0.055
-0.054
-0.053
-0.049
-0.044
-0.038
-0.03
-0.021
-0.012
-0.004
0.005
0.014
0.022
0.032
0.042
0.053
0.063
0.073
0.08
0.084
0.088
0.091
0.092
0.093
0.094
0.096
0.096
0.094
0.092
0.09
0.087
0.083
0.08
0.072
0.065
0.057
0.05
0.04
0.033
0.022
0.012
0.002
-0.007
-0.014
-0.021
-0.029
-0.038
-0.046
-0.052
-0.059
-0.062
-0.063
-0.063
-0.064
-0.064
-0.064
-0.065
-0.065
-0.064
-0.063
-0.061
-0.059
-0.058
-0.055
-0.053
-0.053
-0.052
-0.05
-0.051
-0.051
-0.05
-0.049
-0.048
-0.047
-0.045
-0.044
-0.044
-0.044
-0.045
-0.045
-0.046
-0.045
-0.044
-0.043
-0.041
-0.04
-0.039
-0.039
-0.038
-0.038
-0.037
-0.037
-0.037
-0.037
-0.036
-0.035
-0.035
-0.034
-0.033
-0.034
-0.033
-0.032
-0.032
-0.032
-0.031
-0.028
-0.025
-0.019
-0.012
-0.005
0.004
0.012
0.019
0.026
0.031
0.035
0.037
0.037
0.036
0.035
0.032
0.027
0.02
0.013
0.003
-0.007
-0.015
-0.021
-0.026
-0.031
-0.033
-0.033
-0.034
-0.034
-0.033
-0.032
-0.032
-0.031
-0.03
-0.028
-0.028
-0.027
-0.027
-0.027
-0.027
-0.027
-0.026
-0.028
-0.032
-0.033
-0.024
-0.003
0.031
0.081
0.139
0.196
0.253
0.309
0.363
0.403
0.419
0.41
0.375
0.317
0.248
0.181
0.113
0.047
-0.015
-0.062
-0.091
-0.102
-0.096
-0.082
-0.07
-0.062
-0.059
-0.059
-0.058
-0.056
-0.055
-0.055
-0.054
-0.053
-0.053
-0.053
-0.052
-0.051
-0.051
-0.05
-0.049
-0.042
-0.037
-0.029
-0.02
-0.01
-0.006
0.001
0.008
0.015
0.023
0.032
0.042
0.052
0.062
0.071
0.078
0.082
0.085
0.087
0.088
0.09
0.092
0.093
0.092
0.091
0.088
0.086
0.083
0.08
0.077
0.074
0.069
0.063
0.055
0.046
0.035
0.024
0.013
-0.001
-0.01
-0.019
-0.028
-0.036
-0.041
-0.049
-0.056
-0.061
-0.064
-0.066
-0.066
-0.066
-0.065
-0.065
-0.065
-0.066
-0.065
-0.064
-0.064
-0.062
-0.061
-0.06
-0.06
-0.059
-0.058
-0.057
-0.057
-0.055
-0.055
-0.054
-0.055
-0.055
-0.055
-0.056
-0.056
-0.055
-0.054
-0.053
-0.051
-0.05
-0.049
-0.05
-0.05
-0.05
-0.05
-0.05
-0.05
-0.049
-0.048
-0.048
-0.048
-0.047
-0.047
-0.048
-0.047
-0.048
-0.048
-0.049
-0.048
-0.048
-0.047
-0.047
-0.046
-0.044
-0.041
-0.036
-0.029
-0.021
-0.012
-0.004
0.005
0.011
0.016
0.02
0.022
0.022
0.022
0.02
0.016
0.01
0.004
-0.002
-0.009
-0.018
-0.025
-0.032
-0.037
-0.041
-0.044
-0.044
-0.045
-0.046
-0.045
-0.045
-0.044
-0.044
-0.043
-0.043
-0.043
-0.043
-0.043
-0.043
-0.044
-0.043
-0.043
-0.045
-0.049
-0.051
-0.042
-0.021
0.013
0.062
0.118
0.174
0.23
0.287
0.341
0.383
0.401
0.368
0.336
0.28
0.214
0.146
0.106
0.039
-0.023
-0.068
-0.098
-0.11
-0.105
-0.091
-0.08
-0.072
-0.068
-0.067
-0.067
-0.066
-0.066
-0.065
-0.064
-0.063
-0.062
-0.062
-0.062
-0.062
-0.061
-0.062
-0.06
-0.056
-0.051
-0.045
-0.037
-0.026
-0.017
-0.009
-0
0.009
0.017
0.026
0.036
0.046
0.056
0.065
0.073
0.079
0.083
0.085
0.086
0.086
0.087
0.087
0.087
0.086
0.084
0.082
0.081
0.077
0.073
0.069
0.064
0.057
0.049
0.041
0.03
0.02
0.009
-0
-0.01
-0.019
-0.028
-0.036
-0.045
-0.054
-0.061
-0.067
-0.071
-0.073
-0.072
-0.071
-0.07
-0.069
-0.068
-0.067
-0.067
-0.067
-0.067
-0.067
-0.067
-0.066
-0.065
-0.064
-0.065
-0.064
-0.063
-0.063
-0.061
-0.06
-0.059
-0.058
-0.056
-0.055
-0.053
-0.052
-0.051
-0.05
-0.05
-0.049
-0.049
-0.049
-0.048
-0.048
-0.048
-0.047
-0.047
-0.046
-0.045
-0.045
-0.046
-0.045
-0.045
-0.045
-0.045
-0.042
-0.041
-0.041
-0.041
-0.039
-0.039
-0.039
-0.038
-0.035
-0.031
-0.027
-0.02
-0.012
-0.004
0.004
0.012
0.019
0.025
0.029
0.031
0.032
0.032
0.03
0.026
0.021
0.015
0.008
-0
-0.009
-0.017
-0.023
-0.028
-0.031
-0.033
-0.034
-0.034
-0.035
-0.035
-0.035
-0.034
-0.034
-0.034
-0.034
-0.033
-0.032
-0.032
-0.032
-0.032
-0.031
-0.03
-0.031
-0.035
-0.037
-0.03
-0.01
0.022
0.07
0.129
0.187
0.243
0.3
0.355
0.397
0.417
0.412
0.381
0.326
0.257
0.187
0.119
0.051
-0.012
-0.059
-0.088
-0.1
-0.096
-0.082
-0.071
-0.063
-0.059
-0.058
-0.057
-0.056
-0.055
-0.055
-0.055
-0.054
-0.054
-0.054
-0.053
-0.052
-0.052
-0.051
-0.05
-0.047
-0.042
-0.036
-0.027
-0.018
-0.01
-0.002
0.007
0.017
0.026
0.037
0.047
0.056
0.064
0.072
0.079
0.084
0.089
0.092
0.094
0.094
0.095
0.096
0.095
0.094
0.094
0.091
0.089
0.086
0.082
0.078
0.072
0.065
0.057
0.043
0.034
0.024
0.014
0.004
0
-0.008
-0.018
-0.026
-0.035
-0.044
-0.051
-0.056
-0.06
-0.061
-0.06
-0.06
-0.059
-0.059
-0.058
-0.058
-0.057
-0.056
-0.056
-0.056
-0.055
-0.054
-0.053
-0.052
-0.052
-0.05
-0.05
-0.049
-0.049
-0.047
-0.047
-0.047
-0.046
-0.044
-0.044
-0.043
-0.043
-0.043
-0.043
-0.043
-0.043
-0.043
-0.043
-0.043
-0.043
-0.043
-0.043
-0.043
-0.043
-0.043
-0.043
-0.041
-0.04
-0.039
-0.038
-0.037
-0.036
-0.036
-0.036
-0.035
-0.035
-0.036
-0.035
-0.032
-0.029
-0.023
-0.015
-0.007
0.001
0.01
0.017
0.022
0.026
0.029
0.031
0.032
0.032
0.031
0.026
0.02
0.012
0.004
-0.005
-0.013
-0.019
-0.025
-0.029
-0.032
-0.033
-0.034
-0.034
-0.033
-0.032
-0.031
-0.031
-0.031
-0.031
-0.031
-0.031
-0.031
-0.029
-0.029
-0.029
-0.029
-0.028
-0.031
-0.035
-0.037
-0.031
-0.012
0.02
0.067
0.123
0.18
0.237
0.293
0.348
0.392
0.413
0.409
0.38
0.326
0.259
0.192
0.124
0.057
-0.007
-0.049
-0.081
-0.096
-0.093
-0.08
-0.075
-0.067
-0.062
-0.061
-0.061
-0.06
-0.06
-0.06
-0.059
-0.059
-0.059
-0.059
-0.059
-0.059
-0.057
-0.057
-0.056
-0.054
-0.049
-0.044
-0.036
-0.023
-0.013
-0.005
0.005
0.013
0.018
0.027
0.037
0.046
0.055
0.064
0.071
0.076
0.08
0.083
0.084
0.084
0.085
0.085
0.085
0.084
0.084
0.082
0.08
0.077
0.073
0.068
0.062
0.054
0.047
0.038
0.028
0.018
0.008
-0.001
-0.01
-0.017
-0.024
-0.032
-0.042
-0.051
-0.06
-0.067
-0.073
-0.074
-0.074
-0.074
-0.074
-0.072
-0.072
-0.072
-0.071
-0.071
-0.071
-0.07
-0.07
-0.069
-0.069
-0.069
-0.069
-0.068
-0.068
-0.067
-0.066
-0.065
-0.064
-0.063
-0.062
-0.061
-0.061
-0.062
-0.063
-0.063
-0.063
-0.062
-0.06
-0.06
-0.059
-0.058
-0.058
-0.057
-0.056
-0.056
-0.055
-0.056
-0.056
-0.055
-0.054
-0.054
-0.053
-0.052
-0.052
-0.052
-0.052
-0.053
-0.052
-0.051
-0.051
-0.049
-0.044
-0.039
-0.031
-0.022
-0.012
-0.003
0.005
0.011
0.016
0.02
0.022
0.023
0.022
0.021
0.017
0.012
0.007
-0
-0.008
-0.018
-0.027
-0.033
-0.038
-0.042
-0.043
-0.042
-0.042
-0.043
-0.043
-0.043
-0.044
-0.045
-0.044
-0.043
-0.043
-0.043
-0.041
-0.04
-0.04
-0.04
-0.04
-0.041
-0.046
-0.049
-0.043
-0.025
0.005
0.052
0.109
0.166
0.223
0.28
0.334
0.38
0.403
0.402
0.374
0.323
0.255
0.16
0.092
0.025
-0.039
-0.088
-0.093
-0.109
-0.107
-0.093
-0.081
-0.072
-0.067
-0.066
-0.065
-0.063
-0.062
-0.061
-0.06
-0.059
-0.059
-0.06
-0.06
-0.06
-0.06
-0.059
-0.057
-0.055
-0.051
-0.045
-0.038
-0.028
-0.019
-0.01
-0
0.009
0.018
0.028
0.038
0.049
0.058
0.067
0.074
0.079
0.083
0.086
0.087
0.089
0.09
0.092
0.093
0.093
0.092
0.092
0.09
0.087
0.083
0.079
0.072
0.064
0.055
0.045
0.034
0.023
0.014
0.005
-0.004
-0.013
-0.02
-0.029
-0.038
-0.047
-0.054
-0.06
-0.063
-0.065
-0.065
-0.064
-0.064
-0.063
-0.063
-0.062
-0.062
-0.062
-0.062
-0.063
-0.062
-0.061
-0.06
-0.059
-0.057
-0.056
-0.055
-0.056
-0.056
-0.055
-0.055
-0.055
-0.053
-0.052
-0.052
-0.051
-0.051
-0.051
-0.05
-0.049
-0.048
-0.047
-0.046
-0.045
-0.044
-0.044
-0.043
-0.042
-0.041
-0.04
-0.039
-0.039
-0.038
-0.038
-0.038
-0.037
-0.037
-0.037
-0.036
-0.035
-0.035
-0.035
-0.035
-0.033
-0.03
-0.024
-0.017
-0.008
0.001
0.01
0.017
0.023
0.028
0.032
0.034
0.035
0.033
0.031
0.027
0.021
0.015
0.008
-0
-0.009
-0.016
-0.022
-0.027
-0.03
-0.032
-0.032
-0.033
-0.033
-0.033
-0.033
-0.033
-0.033
-0.033
-0.032
-0.032
-0.032
-0.032
-0.032
-0.032
-0.032
-0.031
-0.031
-0.034
-0.037
-0.03
-0.013
0.017
0.062
0.117
0.174
0.231
0.288
0.344
0.391
0.415
0.414
0.387
0.337
0.271
0.204
0.136
0.068
0.003
-0.047
-0.081
-0.097
-0.097
-0.083
-0.071
-0.062
-0.057
-0.057
-0.056
-0.055
-0.054
-0.053
-0.052
-0.051
-0.051
-0.052
-0.052
-0.05
-0.05
-0.049
-0.047
-0.044
-0.041
-0.035
-0.028
-0.019
-0.01
-0.001
0.008
0.017
0.026
0.035
0.045
0.055
0.065
0.074
0.082
0.088
0.092
0.094
0.096
0.097
0.099
0.1
0.1
0.1
0.098
0.095
0.092
0.089
0.085
0.08
0.075
0.068
0.059
0.051
0.04
0.028
0.018
0.005
-0.005
-0.013
-0.021
-0.03
-0.034
-0.042
-0.049
-0.054
-0.057
-0.058
-0.058
-0.058
-0.057
-0.057
-0.056
-0.056
-0.055
-0.054
-0.053
-0.053
-0.053
-0.052
-0.052
-0.052
-0.052
-0.05
-0.051
-0.051
-0.051
-0.05
-0.05
-0.049
-0.049
-0.048
-0.048
-0.047
-0.047
-0.045
-0.046
-0.046
-0.046
-0.046
-0.048
-0.048
-0.047
-0.047
-0.047
-0.046
-0.046
-0.045
-0.044
-0.042
-0.041
-0.041
-0.041
-0.04
-0.04
-0.039
-0.039
-0.038
-0.038
-0.038
-0.038
-0.032
-0.029
-0.024
-0.017
-0.005
-0
0.007
0.015
0.021
0.022
0.026
0.028
0.027
0.026
0.024
0.021
0.015
0.009
0.003
-0.004
-0.012
-0.02
-0.025
-0.031
-0.035
-0.038
-0.038
-0.039
-0.04
-0.04
-0.04
-0.04
-0.041
-0.04
-0.039
-0.039
-0.039
-0.038
-0.037
-0.037
-0.036
-0.035
-0.036
-0.039
-0.043
-0.037
-0.021
0.008
0.052
0.108
0.165
0.222
0.279
0.334
0.381
0.406
0.406
0.381
0.331
0.264
0.196
0.127
0.06
-0.005
-0.056
-0.091
-0.109
-0.11
-0.098
-0.085
-0.076
-0.071
-0.068
-0.068
-0.068
-0.067
-0.066
-0.065
-0.063
-0.062
-0.062
-0.062
-0.062
-0.062
-0.061
-0.061
-0.059
-0.055
-0.05
-0.043
-0.034
-0.025
-0.016
-0.006
0.008
0.016
0.025
0.035
0.044
0.049
0.058
0.066
0.072
0.076
0.078
0.08
0.082
0.083
0.085
0.086
0.086
0.084
0.082
0.079
0.075
0.071
0.066
0.061
0.053
0.045
0.036
0.025
0.014
0.004
-0.005
-0.014
-0.023
-0.031
-0.044
-0.053
-0.061
-0.068
-0.075
-0.075
-0.076
-0.076
-0.076
-0.075
-0.074
-0.073
-0.072
-0.071
-0.07
-0.07
-0.07
-0.07
-0.069
-0.069
-0.068
-0.067
-0.065
-0.065
-0.064
-0.063
-0.063
-0.063
-0.062
-0.061
-0.061
-0.06
-0.059
-0.059
-0.059
-0.06
-0.06
-0.059
-0.059
-0.057
-0.056
-0.055
-0.055
-0.055
-0.053
-0.052
-0.051
-0.05
-0.049
-0.05
-0.05
-0.051
-0.051
-0.05
-0.05
-0.049
-0.047
-0.046
-0.045
-0.045
-0.044
-0.041
-0.036
-0.029
-0.02
-0.011
-0.002
0.007
0.014
0.019
0.022
0.023
0.023
0.022
0.02
0.017
0.013
0.007
-0.001
-0.009
-0.018
-0.026
-0.033
-0.038
-0.043
-0.045
-0.045
-0.045
-0.045
-0.045
-0.044
-0.044
-0.044
-0.042
-0.041
-0.041
-0.04
-0.039
-0.039
-0.039
-0.039
-0.039
-0.04
-0.043
-0.048
-0.043
-0.026
0.002
0.046
0.102
0.159
0.216
0.274
0.33
0.378
0.405
0.407
0.383
0.334
0.269
0.202
0.135
0.068
0.003
-0.05
-0.086
-0.105
-0.106
-0.094
-0.081
-0.071
-0.065
-0.062
-0.061
-0.06
-0.06
-0.059
-0.058
-0.057
-0.055
-0.055
-0.055
-0.055
-0.056
-0.057
-0.058
-0.056
-0.052
-0.047
-0.039
-0.029
-0.019
-0.01
0
0.01
0.019
0.027
0.037
0.047
0.056
0.065
0.073
0.08
0.084
0.087
0.09
0.091
0.091
0.093
0.094
0.093
0.092
0.09
0.087
0.084
0.081
0.078
0.073
0.066
0.058
0.049
0.038
0.027
0.017
0.007
-0.003
-0.013
-0.022
-0.035
-0.044
-0.052
-0.059
-0.064
-0.065
-0.067
-0.068
-0.068
-0.067
-0.065
-0.064
-0.062
-0.061
-0.059
-0.059
-0.058
-0.057
-0.056
-0.055
-0.053
-0.052
-0.051
-0.05
-0.05
-0.049
-0.048
-0.048
-0.048
-0.047
-0.047
-0.047
-0.047
-0.045
-0.044
-0.043
-0.042
-0.042
-0.042
-0.041
-0.041
-0.04
-0.039
-0.039
-0.038
-0.037
-0.037
-0.037
-0.036
-0.036
-0.036
-0.036
-0.036
-0.036
-0.036
-0.035
-0.034
-0.034
-0.033
-0.032
-0.029
-0.025
-0.02
-0.014
-0.005
0.003
0.01
0.017
0.023
0.027
0.031
0.034
0.035
0.035
0.034
0.031
0.026
0.02
0.014
0.006
-0.002
-0.01
-0.016
-0.022
-0.026
-0.028
-0.028
-0.028
-0.028
-0.029
-0.029
-0.03
-0.031
-0.031
-0.03
-0.03
-0.029
-0.028
-0.026
-0.026
-0.026
-0.026
-0.026
-0.029
-0.034
-0.03
-0.015
0.012
0.055
0.11
0.167
0.224
0.281
0.336
0.385
0.415
0.419
0.398
0.351
0.286
0.217
0.148
0.08
0.015
-0.039
-0.076
-0.096
-0.099
-0.087
-0.073
-0.063
-0.057
-0.055
-0.055
-0.056
-0.055
-0.055
-0.055
-0.054
-0.053
-0.053
-0.052
-0.051
-0.051
-0.051
-0.05
-0.048
-0.046
-0.041
-0.034
-0.025
-0.015
-0.005
0.004
0.013
0.022
0.031
0.04
0.051
0.06
0.07
0.077
0.084
0.088
0.091
0.092
0.093
0.093
0.093
0.092
0.092
0.09
0.089
0.087
0.085
0.082
0.078
0.073
0.066
0.059
0.051
0.04
0.029
0.019
0.009
-0.001
-0.01
-0.017
-0.026
-0.035
-0.044
-0.053
-0.06
-0.065
-0.067
-0.067
-0.065
-0.065
-0.064
-0.064
-0.065
-0.065
-0.063
-0.062
-0.06
-0.059
-0.058
-0.058
-0.058
-0.059
-0.058
-0.058
-0.058
-0.057
-0.055
-0.054
-0.054
-0.054
-0.053
-0.053
-0.053
-0.053
-0.052
-0.053
-0.053
-0.053
-0.052
-0.051
-0.052
-0.051
-0.052
-0.053
-0.053
-0.052
-0.051
-0.05
-0.049
-0.048
-0.048
-0.047
-0.047
-0.046
-0.045
-0.044
-0.043
-0.043
-0.043
-0.043
-0.041
-0.038
-0.034
-0.027
-0.017
-0.009
-0
0.008
0.015
0.018
0.022
0.025
0.025
0.024
0.022
0.019
0.014
0.008
0.001
-0.007
-0.016
-0.024
-0.032
-0.038
-0.042
-0.045
-0.045
-0.046
-0.047
-0.047
-0.046
-0.046
-0.046
-0.045
-0.044
-0.044
-0.044
-0.044
-0.044
-0.044
-0.044
-0.043
-0.042
-0.045
-0.05
-0.047
-0.033
-0.006
0.035
0.091
0.149
0.206
0.263
0.318
0.368
0.397
0.402
0.381
0.335
0.271
0.204
0.138
0.071
0.004
-0.051
-0.089
-0.109
-0.111
-0.098
-0.084
-0.073
-0.068
-0.066
-0.066
-0.066
-0.066
-0.066
-0.066
-0.065
-0.065
-0.065
-0.065
-0.065
-0.065
-0.065
-0.064
-0.062
-0.057
-0.052
-0.044
-0.035
-0.026
-0.018
-0.009
-0
0.009
0.018
0.028
0.042
0.052
0.062
0.071
0.078
0.079
0.083
0.085
0.086
0.087
0.088
0.089
0.088
0.087
0.085
0.082
0.079
0.075
0.072
0.066
0.06
0.052
0.043
0.032
0.021
0.011
0.001
-0.009
-0.018
-0.026
-0.034
-0.043
-0.052
-0.06
-0.066
-0.071
-0.073
-0.073
-0.071
-0.071
-0.071
-0.07
-0.071
-0.071
-0.07
-0.069
-0.068
-0.067
-0.066
-0.065
-0.064
-0.063
-0.061
-0.061
-0.061
-0.061
-0.06
-0.059
-0.059
-0.058
-0.058
-0.058
-0.058
-0.058
-0.056
-0.055
-0.053
-0.052
-0.051
-0.051
-0.051
-0.051
-0.051
-0.051
-0.051
-0.051
-0.05
-0.05
-0.049
-0.048
-0.048
-0.047
-0.047
-0.046
-0.045
-0.044
-0.042
-0.041
-0.041
-0.041
-0.04
-0.038
-0.034
-0.028
-0.019
-0.01
-0.001
0.007
0.015
0.021
0.025
0.028
0.029
0.028
0.026
0.023
0.018
0.013
0.007
-0.001
-0.009
-0.017
-0.025
-0.031
-0.035
-0.038
-0.039
-0.038
-0.038
-0.038
-0.038
-0.038
-0.038
-0.038
-0.037
-0.036
-0.036
-0.035
-0.034
-0.034
-0.033
-0.032
-0.031
-0.033
-0.038
-0.035
-0.022
0.002
0.042
0.095
0.153
0.211
0.268
0.324
0.375
0.407
0.415
0.398
0.356
0.293
0.225
0.157
0.089
0.023
-0.033
-0.073
-0.096
-0.101
-0.091
-0.077
-0.068
-0.061
-0.059
-0.059
-0.059
-0.058
-0.057
-0.056
-0.055
-0.053
-0.052
-0.052
-0.051
-0.05
-0.05
-0.05
-0.047
-0.043
-0.037
-0.029
-0.02
-0.01
-0.002
0.007
0.016
0.024
0.033
0.043
0.053
0.063
0.072
0.08
0.087
0.092
0.095
0.098
0.099
0.1
0.1
0.1
0.099
0.097
0.095
0.093
0.091
0.089
0.087
0.083
0.076
0.069
0.06
0.049
0.037
0.027
0.017
0.007
-0.002
-0.011
-0.02
-0.029
-0.038
-0.048
-0.054
-0.059
-0.061
-0.06
-0.059
-0.058
-0.057
-0.056
-0.056
-0.056
-0.055
-0.054
-0.054
-0.054
-0.052
-0.051
-0.051
-0.05
-0.049
-0.048
-0.047
-0.047
-0.046
-0.045
-0.046
-0.046
-0.046
-0.046
-0.046
-0.046
-0.046
-0.046
-0.046
-0.045
-0.044
-0.043
-0.042
-0.042
-0.042
-0.042
-0.042
-0.042
-0.042
-0.042
-0.04
-0.039
-0.039
-0.039
-0.038
-0.037
-0.037
-0.037
-0.036
-0.035
-0.036
-0.035
-0.032
-0.029
-0.024
-0.018
-0.009
-0.001
0.007
0.016
0.023
0.029
0.032
0.035
0.036
0.035
0.033
0.03
0.026
0.019
0.012
0.004
-0.004
-0.013
-0.02
-0.026
-0.03
-0.033
-0.033
-0.033
-0.033
-0.033
-0.034
-0.034
-0.035
-0.034
-0.033
-0.033
-0.033
-0.033
-0.033
-0.034
-0.034
-0.033
-0.032
-0.035
-0.04
-0.039
-0.026
-0.001
0.038
0.092
0.15
0.206
0.262
0.319
0.371
0.403
0.411
0.395
0.353
0.29
0.222
0.155
0.087
0.02
-0.038
-0.079
-0.102
-0.109
-0.099
-0.086
-0.075
-0.068
-0.064
-0.062
-0.061
-0.059
-0.058
-0.059
-0.06
-0.06
-0.062
-0.062
-0.061
-0.06
-0.058
-0.056
-0.053
-0.049
-0.044
-0.038
-0.03
-0.02
-0.011
-0.002
0.007
0.016
0.025
0.034
0.045
0.055
0.064
0.071
0.078
0.082
0.084
0.085
0.086
0.087
0.088
0.089
0.089
0.087
0.085
0.083
0.08
0.077
0.074
0.069
0.063
0.055
0.047
0.037
0.026
0.015
0.005
-0.005
-0.014
-0.022
-0.03
-0.038
-0.047
-0.055
-0.061
-0.067
-0.07
-0.071
-0.07
-0.07
-0.069
-0.068
-0.067
-0.066
-0.066
-0.067
-0.067
-0.067
-0.066
-0.065
-0.064
-0.064
-0.063
-0.063
-0.064
-0.063
-0.062
-0.062
-0.062
-0.061
-0.06
-0.06
-0.06
-0.059
-0.058
-0.058
-0.057
-0.056
-0.055
-0.055
-0.055
-0.055
-0.055
-0.055
-0.055
-0.054
-0.053
-0.053
-0.052
-0.051
-0.05
-0.05
-0.049
-0.049
-0.049
-0.048
-0.047
-0.047
-0.047
-0.047
-0.045
-0.042
-0.037
-0.031
-0.023
-0.015
-0.006
0.002
0.008
0.013
0.017
0.02
0.021
0.022
0.02
0.018
0.014
0.009
0.004
-0.003
-0.011
-0.021
-0.029
-0.036
-0.041
-0.045
-0.046
-0.047
-0.046
-0.045
-0.044
-0.043
-0.043
-0.042
-0.042
-0.042
-0.042
-0.042
-0.041
-0.042
-0.042
-0.041
-0.045
-0.047
-0.051
-0.049
-0.036
-0.006
0.031
0.082
0.14
0.197
0.254
0.31
0.363
0.398
0.408
0.393
0.354
0.292
0.224
0.156
0.088
0.021
-0.036
-0.077
-0.101
-0.108
-0.099
-0.086
-0.076
-0.07
-0.067
-0.066
-0.065
-0.065
-0.064
-0.063
-0.063
-0.063
-0.062
-0.063
-0.063
-0.062
-0.062
-0.061
-0.059
-0.057
-0.053
-0.045
-0.036
-0.026
-0.016
-0.007
0.001
0.01
0.018
0.029
0.04
0.05
0.06
0.068
0.074
0.079
0.082
0.085
0.087
0.088
0.089
0.089
0.089
0.088
0.086
0.083
0.08
0.077
0.074
0.07
0.064
0.056
0.047
0.037
0.026
0.016
0.007
-0.002
-0.011
-0.019
-0.028
-0.036
-0.045
-0.052
-0.059
-0.064
-0.068
-0.069
-0.069
-0.068
-0.068
-0.066
-0.065
-0.065
-0.064
-0.062
-0.061
-0.06
-0.058
-0.057
-0.057
-0.058
-0.057
-0.058
-0.059
-0.058
-0.056
-0.055
-0.053
-0.052
-0.051
-0.05
-0.049
-0.049
-0.048
-0.047
-0.047
-0.047
-0.046
-0.046
-0.046
-0.046
-0.044
-0.044
-0.044
-0.043
-0.044
-0.044
-0.043
-0.043
-0.044
-0.043
-0.042
-0.041
-0.04
-0.039
-0.038
-0.038
-0.038
-0.038
-0.037
-0.035
-0.03
-0.023
-0.015
-0.005
0.004
0.013
0.021
0.028
0.032
0.036
0.037
0.037
0.035
0.031
0.027
0.021
0.014
0.007
-0.001
-0.01
-0.017
-0.024
-0.029
-0.031
-0.032
-0.032
-0.032
-0.032
-0.031
-0.03
-0.03
-0.03
-0.029
-0.029
-0.029
-0.029
-0.028
-0.028
-0.028
-0.028
-0.028
-0.03
-0.036
-0.036
-0.024
-0.001
0.036
0.089
0.148
0.205
0.261
0.318
0.371
0.408
0.419
0.406
0.367
0.306
0.238
0.171
0.104
0.037
-0.023
-0.066
-0.091
-0.1
-0.091
-0.077
-0.067
-0.06
-0.056
-0.054
-0.053
-0.052
-0.052
-0.052
-0.052
-0.052
-0.052
-0.051
-0.051
-0.05
-0.05
-0.049
-0.048
-0.044
-0.039
-0.033
-0.024
-0.015
-0.006
0.002
0.012
0.02
0.028
0.038
0.047
0.056
0.066
0.075
0.082
0.088
0.092
0.094
0.095
0.096
0.095
0.096
0.096
0.095
0.094
0.092
0.089
0.085
0.082
0.077
0.071
0.064
0.056
0.046
0.035
0.024
0.013
0.003
-0.007
-0.014
-0.022
-0.031
-0.04
-0.048
-0.055
-0.06
-0.063
-0.063
-0.063
-0.061
-0.061
-0.059
-0.059
-0.059
-0.059
-0.058
-0.059
-0.058
-0.057
-0.057
-0.057
-0.057
-0.056
-0.056
-0.055
-0.054
-0.053
-0.051
-0.05
-0.05
-0.049
-0.049
-0.049
-0.049
-0.048
-0.048
-0.048
-0.047
-0.047
-0.046
-0.045
-0.044
-0.043
-0.042
-0.041
-0.041
-0.041
-0.041
-0.04
-0.039
-0.039
-0.038
-0.038
-0.038
-0.039
-0.039
-0.039
-0.04
-0.041
-0.041
-0.04
-0.037
-0.032
-0.025
-0.017
-0.008
-0
0.007
0.014
0.02
0.024
0.027
0.028
0.028
0.027
0.025
0.022
0.016
0.01
0.002
-0.006
-0.016
-0.024
-0.03
-0.035
-0.038
-0.04
-0.04
-0.039
-0.039
-0.039
-0.039
-0.04
-0.04
-0.039
-0.039
-0.039
-0.038
-0.037
-0.037
-0.037
-0.036
-0.041
-0.042
-0.047
-0.047
-0.037
-0.009
0.027
0.077
0.135
0.192
0.249
0.305
0.358
0.395
0.409
0.397
0.36
0.3
0.232
0.164
0.096
0.029
-0.03
-0.073
-0.1
-0.11
-0.103
-0.089
-0.078
-0.071
-0.067
-0.066
-0.065
-0.065
-0.064
-0.064
-0.064
-0.063
-0.063
-0.064
-0.064
-0.064
-0.065
-0.065
-0.063
-0.059
-0.054
-0.047
-0.038
-0.028
-0.019
-0.011
-0.002
0.007
0.016
0.026
0.036
0.046
0.056
0.063
0.069
0.074
0.077
0.08
0.084
0.085
0.087
0.089
0.09
0.088
0.087
0.085
0.081
0.076
0.072
0.068
0.062
0.055
0.047
0.037
0.026
0.015
0.006
-0.004
-0.013
-0.021
-0.03
-0.039
-0.049
-0.059
-0.065
-0.07
-0.073
-0.073
-0.073
-0.073
-0.073
-0.073
-0.072
-0.071
-0.071
-0.07
-0.07
-0.069
-0.068
-0.066
-0.065
-0.065
-0.064
-0.063
-0.064
-0.064
-0.063
-0.063
-0.063
-0.062
-0.06
-0.059
-0.059
-0.059
-0.058
-0.058
-0.058
-0.057
-0.056
-0.057
-0.057
-0.057
-0.057
-0.056
-0.055
-0.054
-0.052
-0.052
-0.052
-0.051
-0.051
-0.051
-0.05
-0.05
-0.049
-0.048
-0.046
-0.045
-0.045
-0.045
-0.044
-0.041
-0.037
-0.031
-0.023
-0.014
-0.005
0.003
0.011
0.018
0.023
0.027
0.028
0.028
0.026
0.024
0.016
0.011
0.004
-0.003
-0.012
-0.016
-0.023
-0.03
-0.034
-0.037
-0.039
-0.039
-0.04
-0.041
-0.04
-0.04
-0.04
-0.039
-0.038
-0.038
-0.038
-0.038
-0.037
-0.037
-0.036
-0.035
-0.034
-0.035
-0.041
-0.042
-0.032
-0.011
0.023
0.073
0.132
0.189
0.245
0.302
0.356
0.395
0.41
0.4
0.365
0.307
0.238
0.171
0.104
0.037
-0.024
-0.07
-0.098
-0.108
-0.102
-0.088
-0.077
-0.069
-0.065
-0.064
-0.064
-0.063
-0.064
-0.064
-0.064
-0.064
-0.064
-0.063
-0.063
-0.061
-0.061
-0.061
-0.059
-0.056
-0.052
-0.046
-0.037
-0.028
-0.019
-0.009
0
0.01
0.02
0.03
0.04
0.05
0.06
0.068
0.075
0.079
0.082
0.084
0.087
0.088
0.09
0.092
0.094
0.093
0.092
0.09
0.087
0.083
0.079
0.075
0.069
0.061
0.054
0.044
0.033
0.023
0.013
0.002
-0.007
-0.015
-0.023
-0.031
-0.04
-0.048
-0.054
-0.059
-0.063
-0.065
-0.064
-0.064
-0.064
-0.063
-0.061
-0.061
-0.061
-0.06
-0.059
-0.058
-0.057
-0.055
-0.053
-0.053
-0.053
-0.052
-0.052
-0.051
-0.051
-0.05
-0.049
-0.048
-0.047
-0.047
-0.047
-0.046
-0.046
-0.045
-0.044
-0.043
-0.042
-0.041
-0.04
-0.041
-0.041
-0.042
-0.042
-0.042
-0.042
-0.042
-0.042
-0.04
-0.04
-0.039
-0.037
-0.037
-0.037
-0.037
-0.036
-0.035
-0.035
-0.034
-0.033
-0.031
-0.027
-0.022
-0.014
-0.005
0.003
0.011
0.019
0.025
0.029
0.033
0.033
0.034
0.034
0.032
0.029
0.025
0.017
0.01
0.002
-0.007
-0.015
-0.021
-0.026
-0.03
-0.032
-0.032
-0.032
-0.032
-0.031
-0.031
-0.031
-0.031
-0.03
-0.029
-0.029
-0.028
-0.027
-0.027
-0.028
-0.027
-0.026
-0.027
-0.033
-0.035
-0.001
0.019
0.053
0.102
0.16
0.193
0.249
0.305
0.358
0.398
0.415
0.407
0.374
0.317
0.251
0.184
0.116
0.049
-0.011
-0.057
-0.087
-0.099
-0.095
-0.082
-0.071
-0.063
-0.058
-0.056
-0.055
-0.054
-0.053
-0.052
-0.052
-0.051
-0.051
-0.05
-0.05
-0.051
-0.05
-0.049
-0.048
-0.045
-0.04
-0.034
-0.026
-0.018
-0.009
-0.001
0.008
0.016
0.025
0.036
0.047
0.057
0.067
0.074
0.081
0.085
0.088
0.09
0.093
0.095
0.096
0.097
0.097
0.095
0.092
0.089
0.086
0.083
0.08
0.076
0.071
0.064
0.056
0.045
0.033
0.021
0.011
0
-0.009
-0.017
-0.024
-0.032
-0.041
-0.049
-0.056
-0.062
-0.066
-0.067
-0.067
-0.066
-0.066
-0.066
-0.066
-0.066
-0.065
-0.064
-0.063
-0.063
-0.063
-0.062
-0.063
-0.062
-0.061
-0.061
-0.06
-0.06
-0.059
-0.058
-0.057
-0.057
-0.056
-0.057
-0.057
-0.056
-0.055
-0.055
-0.054
-0.053
-0.052
-0.052
-0.052
-0.051
-0.052
-0.052
-0.052
-0.051
-0.051
-0.051
-0.051
-0.05
-0.05
-0.05
-0.049
-0.047
-0.046
-0.046
-0.045
-0.044
-0.044
-0.044
-0.043
-0.041
-0.038
-0.032
-0.025
-0.017
-0.008
0
0.008
0.014
0.018
0.021
0.022
0.022
0.021
0.02
0.017
0.012
0.006
-0.001
-0.009
-0.018
-0.026
-0.033
-0.039
-0.044
-0.047
-0.047
-0.048
-0.048
-0.046
-0.046
-0.045
-0.045
-0.045
-0.046
-0.045
-0.044
-0.043
-0.042
-0.042
-0.042
-0.041
-0.043
-0.047
-0.049
-0.018
0.002
0.035
0.084
0.143
0.177
0.234
0.29
0.346
0.387
0.404
0.397
0.366
0.309
0.242
0.175
0.108
0.04
-0.023
-0.07
-0.1
-0.113
-0.108
-0.095
-0.084
-0.076
-0.072
-0.071
-0.071
-0.07
-0.069
-0.069
-0.069
-0.068
-0.067
-0.067
-0.066
-0.064
-0.063
-0.063
-0.063
-0.061
-0.056
-0.05
-0.041
-0.03
-0.02
-0.01
0
0.009
0.017
0.027
0.036
0.044
0.053
0.061
0.068
0.072
0.076
0.079
0.081
0.082
0.082
0.082
0.08
0.079
0.078
0.077
0.075
0.074
0.071
0.067
0.061
0.055
0.047
0.038
0.027
0.017
0.007
-0.005
-0.015
-0.023
-0.032
-0.04
-0.047
-0.056
-0.062
-0.067
-0.07
-0.072
-0.071
-0.07
-0.069
-0.068
-0.067
-0.066
-0.065
-0.065
-0.065
-0.064
-0.064
-0.063
-0.062
-0.062
-0.061
-0.06
-0.059
-0.06
-0.059
-0.058
-0.058
-0.058
-0.057
-0.057
-0.056
-0.055
-0.054
-0.053
-0.052
-0.051
-0.05
-0.051
-0.051
-0.05
-0.049
-0.049
-0.049
-0.049
-0.049
-0.049
-0.049
-0.049
-0.048
-0.047
-0.046
-0.045
-0.043
-0.043
-0.042
-0.042
-0.041
-0.041
-0.04
-0.037
-0.034
-0.028
-0.02
-0.012
-0.004
0.005
0.012
0.018
0.022
0.026
0.028
0.028
0.027
0.025
0.022
0.017
0.012
0.006
-0.005
-0.013
-0.022
-0.029
-0.034
-0.035
-0.038
-0.038
-0.038
-0.038
-0.036
-0.035
-0.034
-0.033
-0.033
-0.034
-0.034
-0.034
-0.033
-0.032
-0.032
-0.031
-0.03
-0.032
-0.037
-0.039
-0.03
-0.01
0.023
0.07
0.127
0.184
0.24
0.295
0.35
0.393
0.412
0.407
0.378
0.324
0.257
0.191
0.124
0.056
-0.007
-0.055
-0.087
-0.102
-0.099
-0.086
-0.074
-0.065
-0.061
-0.059
-0.059
-0.059
-0.058
-0.057
-0.055
-0.054
-0.053
-0.052
-0.051
-0.051
-0.05
-0.049
-0.049
-0.046
-0.041
-0.036
-0.028
-0.018
-0.008
0.002
0.012
0.021
0.029
0.038
0.048
0.057
0.067
0.077
0.084
0.089
0.093
0.094
0.096
0.097
0.098
0.098
0.099
0.098
0.097
0.095
0.093
0.09
0.086
0.081
0.075
0.068
0.061
0.052
0.043
0.033
0.024
0.015
0.006
-0.003
-0.013
-0.025
-0.035
-0.045
-0.053
-0.058
-0.061
-0.062
-0.063
-0.062
-0.062
-0.061
-0.059
-0.058
-0.057
-0.056
-0.054
-0.054
-0.053
-0.052
-0.052
-0.052
-0.052
-0.052
-0.052
-0.052
-0.052
-0.051
-0.05
-0.05
-0.049
-0.048
-0.048
-0.049
-0.049
-0.049
-0.048
-0.047
-0.046
-0.044
-0.043
-0.043
-0.042
-0.041
-0.042
-0.041
-0.041
-0.04
-0.039
-0.037
-0.036
-0.035
-0.035
-0.034
-0.034
-0.034
-0.033
-0.032
-0.032
-0.032
-0.032
-0.03
-0.026
-0.021
-0.013
-0.005
0.003
0.01
0.018
0.024
0.03
0.034
0.038
0.038
0.038
0.036
0.033
0.027
0.02
0.011
0.003
-0.006
-0.014
-0.02
-0.025
-0.03
-0.032
-0.032
-0.033
-0.034
-0.034
-0.034
-0.034
-0.034
-0.033
-0.033
-0.033
-0.034
-0.034
-0.034
-0.034
-0.033
-0.032
-0.032
-0.036
-0.04
-0.032
-0.013
0.018
0.064
0.143
0.2
0.256
0.312
0.368
0.39
0.411
0.408
0.379
0.325
0.257
0.188
0.121
0.054
-0.009
-0.059
-0.092
-0.107
-0.104
-0.09
-0.078
-0.069
-0.063
-0.062
-0.061
-0.06
-0.06
-0.059
-0.059
-0.058
-0.057
-0.057
-0.057
-0.058
-0.057
-0.056
-0.056
-0.053
-0.049
-0.045
-0.038
-0.029
-0.02
-0.01
-0
0.009
0.017
0.026
0.035
0.044
0.054
0.062
0.07
0.075
0.079
0.082
0.084
0.086
0.087
0.087
0.087
0.086
0.084
0.082
0.08
0.077
0.073
0.069
0.064
0.056
0.048
0.039
0.029
0.018
0.008
-0.002
-0.012
-0.02
-0.028
-0.037
-0.046
-0.054
-0.062
-0.069
-0.073
-0.075
-0.076
-0.075
-0.074
-0.074
-0.073
-0.072
-0.071
-0.07
-0.068
-0.068
-0.068
-0.067
-0.066
-0.067
-0.067
-0.066
-0.066
-0.065
-0.064
-0.063
-0.062
-0.062
-0.061
-0.06
-0.059
-0.059
-0.058
-0.058
-0.058
-0.058
-0.057
-0.057
-0.056
-0.055
-0.054
-0.053
-0.053
-0.052
-0.052
-0.052
-0.052
-0.051
-0.051
-0.052
-0.052
-0.052
-0.052
-0.052
-0.051
-0.05
-0.049
-0.049
-0.048
-0.046
-0.042
-0.036
-0.028
-0.019
-0.01
-0.002
0.004
0.01
0.015
0.018
0.02
0.021
0.02
0.017
0.014
0.008
0.001
-0.006
-0.017
-0.025
-0.032
-0.038
-0.043
-0.043
-0.045
-0.046
-0.047
-0.047
-0.046
-0.045
-0.045
-0.044
-0.043
-0.043
-0.043
-0.043
-0.043
-0.043
-0.043
-0.042
-0.041
-0.042
-0.046
-0.049
-0.041
-0.022
0.011
0.059
0.116
0.174
0.231
0.289
0.345
0.388
0.407
0.4
0.368
0.313
0.246
0.179
0.113
0.045
-0.017
-0.065
-0.096
-0.109
-0.105
-0.092
-0.081
-0.073
-0.068
-0.067
-0.068
-0.066
-0.066
-0.065
-0.065
-0.064
-0.063
-0.063
-0.063
-0.062
-0.061
-0.062
-0.061
-0.057
-0.052
-0.046
-0.037
-0.027
-0.019
-0.011
-0.001
0.008
0.017
0.028
0.038
0.047
0.056
0.065
0.072
0.077
0.082
0.085
0.087
0.089
0.089
0.089
0.089
0.087
0.085
0.082
0.078
0.075
0.072
0.069
0.064
0.06
0.052
0.042
0.031
0.019
0.009
-0.001
-0.01
-0.019
-0.027
-0.035
-0.043
-0.052
-0.059
-0.064
-0.068
-0.07
-0.07
-0.07
-0.069
-0.069
-0.068
-0.067
-0.066
-0.064
-0.064
-0.063
-0.063
-0.062
-0.062
-0.061
-0.061
-0.06
-0.06
-0.059
-0.058
-0.056
-0.055
-0.054
-0.053
-0.053
-0.054
-0.054
-0.053
-0.053
-0.052
-0.051
-0.05
-0.05
-0.049
-0.049
-0.047
-0.046
-0.045
-0.043
-0.043
-0.043
-0.043
-0.043
-0.043
-0.043
-0.042
-0.042
-0.041
-0.04
-0.04
-0.039
-0.038
-0.037
-0.037
-0.035
-0.032
-0.026
-0.019
-0.01
-0.002
0.007
0.014
0.02
0.026
0.03
0.032
0.033
0.032
0.03
0.027
0.022
0.016
0.01
0.002
-0.006
-0.014
-0.021
-0.025
-0.029
-0.031
-0.031
-0.03
-0.031
-0.032
-0.032
-0.032
-0.032
-0.031
-0.03
-0.031
-0.03
-0.03
-0.03
-0.03
-0.029
-0.028
-0.028
-0.032
-0.036
-0.03
-0.013
0.017
0.061
0.118
0.176
0.232
0.288
0.345
0.392
0.416
0.415
0.39
0.339
0.272
0.204
0.137
0.07
0.006
-0.045
-0.08
-0.098
-0.097
-0.084
-0.072
-0.063
-0.057
-0.056
-0.056
-0.055
-0.054
-0.053
-0.052
-0.051
-0.05
-0.05
-0.049
-0.049
-0.048
-0.048
-0.048
-0.046
-0.042
-0.037
-0.029
-0.02
-0.011
-0.002
0.008
0.017
0.026
0.036
0.046
0.056
0.065
0.074
0.082
0.087
0.091
0.094
0.096
0.097
0.099
0.1
0.101
0.101
0.098
0.095
0.091
0.087
0.082
0.08
0.075
0.069
0.062
0.053
0.042
0.032
0.022
0.012
0.002
-0.007
-0.015
-0.024
-0.033
-0.041
-0.048
-0.054
-0.057
-0.059
-0.059
-0.059
-0.059
-0.059
-0.059
-0.06
-0.06
-0.059
-0.058
-0.058
-0.058
-0.058
-0.057
-0.057
-0.056
-0.055
-0.053
-0.052
-0.051
-0.05
-0.049
-0.049
-0.049
-0.048
-0.048
-0.049
-0.048
-0.048
-0.048
-0.047
-0.046
-0.046
-0.046
-0.046
-0.046
-0.045
-0.045
-0.044
-0.043
-0.043
-0.044
-0.043
-0.043
-0.043
-0.042
-0.04
-0.04
-0.039
-0.039
-0.038
-0.039
-0.039
-0.038
-0.037
-0.033
-0.028
-0.021
-0.013
-0.005
0.004
0.011
0.017
0.022
0.027
0.03
0.032
0.032
0.031
0.027
0.02
0.013
0.006
-0.003
-0.012
-0.021
-0.029
-0.034
-0.036
-0.038
-0.038
-0.037
-0.038
-0.039
-0.039
-0.039
-0.039
-0.039
-0.039
-0.039
-0.039
-0.038
-0.038
-0.037
-0.036
-0.035
-0.037
-0.041
-0.046
-0.042
-0.026
0.003
0.048
0.104
0.162
0.219
0.276
0.333
0.381
0.407
0.408
0.384
0.334
0.268
0.201
0.109
0.041
-0.025
-0.077
-0.112
-0.105
-0.106
-0.094
-0.082
-0.073
-0.068
-0.067
-0.067
-0.067
-0.067
-0.067
-0.068
-0.067
-0.066
-0.065
-0.064
-0.063
-0.062
-0.062
-0.062
-0.059
-0.054
-0.048
-0.04
-0.03
-0.02
-0.011
-0.002
0.006
0.015
0.024
0.034
0.043
0.053
0.062
0.07
0.076
0.08
0.083
0.084
0.085
0.086
0.087
0.087
0.087
0.085
0.083
0.08
0.077
0.074
0.07
0.065
0.058
0.05
0.042
0.032
0.022
0.012
0.002
-0.007
-0.016
-0.024
-0.033
-0.042
-0.051
-0.059
-0.066
-0.07
-0.073
-0.073
-0.072
-0.071
-0.07
-0.069
-0.068
-0.068
-0.068
-0.067
-0.066
-0.066
-0.065
-0.064
-0.063
-0.063
-0.062
-0.061
-0.061
-0.06
-0.06
-0.06
-0.061
-0.061
-0.061
-0.061
-0.061
-0.06
-0.059
-0.059
-0.058
-0.056
-0.056
-0.056
-0.055
-0.054
-0.054
-0.054
-0.054
-0.053
-0.052
-0.052
-0.051
-0.05
-0.05
-0.05
-0.05
-0.049
-0.049
-0.049
-0.049
-0.048
-0.047
-0.047
-0.045
-0.042
-0.037
-0.029
-0.02
-0.011
-0.001
0.007
0.013
0.017
0.021
0.023
0.023
0.022
0.02
0.018
0.013
0.007
0.001
-0.008
-0.016
-0.023
-0.029
-0.035
-0.036
-0.039
-0.04
-0.04
-0.041
-0.042
-0.041
-0.041
-0.041
-0.041
-0.04
-0.04
-0.04
-0.039
-0.039
-0.038
-0.038
-0.038
-0.037
-0.04
-0.044
-0.04
-0.024
0.002
0.044
0.1
0.158
0.215
0.271
0.324
0.373
0.401
0.404
0.382
0.339
0.273
0.205
0.138
0.071
0.006
-0.047
-0.083
-0.103
-0.104
-0.093
-0.081
-0.072
-0.067
-0.064
-0.063
-0.062
-0.061
-0.06
-0.06
-0.059
-0.057
-0.056
-0.056
-0.056
-0.055
-0.053
-0.052
-0.049
-0.044
-0.039
-0.033
-0.025
-0.016
-0.007
0.001
0.01
0.019
0.028
0.038
0.048
0.058
0.067
0.075
0.081
0.085
0.087
0.089
0.09
0.091
0.092
0.092
0.092
0.091
0.089
0.087
0.085
0.083
0.081
0.072
0.067
0.058
0.048
0.037
0.031
0.02
0.011
0.001
-0.008
-0.017
-0.025
-0.034
-0.043
-0.051
-0.056
-0.06
-0.062
-0.062
-0.061
-0.061
-0.061
-0.06
-0.059
-0.058
-0.057
-0.056
-0.055
-0.055
-0.055
-0.055
-0.055
-0.054
-0.053
-0.05
-0.049
-0.048
-0.047
-0.047
-0.046
-0.045
-0.044
-0.044
-0.044
-0.045
-0.045
-0.045
-0.045
-0.044
-0.044
-0.043
-0.043
-0.041
-0.04
-0.04
-0.041
-0.041
-0.041
-0.042
-0.042
-0.042
-0.041
-0.041
-0.039
-0.037
-0.037
-0.036
-0.034
-0.033
-0.033
-0.033
-0.031
-0.027
-0.022
-0.015
-0.005
0.004
0.011
0.018
0.024
0.028
0.032
0.035
0.036
0.036
0.034
0.03
0.025
0.019
0.012
0.005
-0.003
-0.011
-0.018
-0.024
-0.029
-0.032
-0.032
-0.032
-0.031
-0.03
-0.029
-0.028
-0.028
-0.028
-0.028
-0.027
-0.027
-0.027
-0.026
-0.026
-0.027
-0.027
-0.027
-0.03
-0.035
-0.032
-0.017
0.009
0.051
0.106
0.163
0.22
0.275
0.331
0.381
0.409
0.413
0.394
0.348
0.284
0.218
0.151
0.083
0.017
-0.037
-0.074
-0.095
-0.098
-0.087
-0.074
-0.065
-0.059
-0.057
-0.057
-0.057
-0.057
-0.056
-0.056
-0.055
-0.055
-0.054
-0.054
-0.053
-0.052
-0.051
-0.05
-0.047
-0.039
-0.034
-0.026
-0.016
-0.007
-0.002
0.007
0.014
0.022
0.03
0.04
0.049
0.059
0.067
0.074
0.08
0.084
0.088
0.09
0.092
0.093
0.094
0.095
0.094
0.093
0.09
0.088
0.084
0.081
0.077
0.069
0.063
0.055
0.046
0.036
0.029
0.018
0.007
-0.003
-0.012
-0.02
-0.028
-0.037
-0.046
-0.054
-0.061
-0.065
-0.068
-0.067
-0.066
-0.066
-0.065
-0.065
-0.065
-0.064
-0.064
-0.063
-0.063
-0.062
-0.062
-0.059
-0.057
-0.056
-0.055
-0.055
-0.056
-0.057
-0.058
-0.057
-0.057
-0.057
-0.056
-0.056
-0.056
-0.055
-0.054
-0.054
-0.054
-0.052
-0.053
-0.053
-0.053
-0.052
-0.052
-0.05
-0.048
-0.048
-0.048
-0.047
-0.047
-0.047
-0.046
-0.046
-0.045
-0.045
-0.046
-0.046
-0.045
-0.045
-0.045
-0.044
-0.043
-0.04
-0.036
-0.03
-0.022
-0.014
-0.005
0.003
0.011
0.016
0.021
0.024
0.025
0.025
0.025
0.023
0.019
0.013
0.006
-0.002
-0.01
-0.019
-0.027
-0.034
-0.039
-0.043
-0.044
-0.045
-0.044
-0.044
-0.044
-0.044
-0.043
-0.043
-0.043
-0.042
-0.042
-0.042
-0.041
-0.04
-0.04
-0.039
-0.04
-0.043
-0.048
-0.045
-0.03
-0.004
0.036
0.09
0.148
0.205
0.262
0.318
0.368
0.398
0.404
0.358
0.314
0.249
0.181
0.113
0.073
0.007
-0.049
-0.08
-0.101
-0.105
-0.094
-0.081
-0.079
-0.072
-0.069
-0.068
-0.068
-0.066
-0.066
-0.066
-0.066
-0.066
-0.066
-0.066
-0.065
-0.064
-0.063
-0.062
-0.06
-0.054
-0.048
-0.041
-0.032
-0.023
-0.017
-0.008
0.001
0.011
0.02
0.03
0.04
0.05
0.06
0.068
0.074
0.079
0.081
0.083
0.084
0.085
0.085
0.086
0.086
0.085
0.084
0.082
0.078
0.075
0.07
0.065
0.059
0.052
0.043
0.033
0.023
0.012
0.002
-0.007
-0.016
-0.025
-0.033
-0.042
-0.05
-0.058
-0.064
-0.068
-0.07
-0.071
-0.071
-0.07
-0.07
-0.068
-0.068
-0.067
-0.067
-0.066
-0.066
-0.066
-0.065
-0.064
-0.063
-0.062
-0.061
-0.06
-0.059
-0.058
-0.057
-0.056
-0.056
-0.055
-0.055
-0.054
-0.054
-0.053
-0.051
-0.051
-0.05
-0.049
-0.049
-0.049
-0.048
-0.047
-0.047
-0.046
-0.046
-0.046
-0.046
-0.046
-0.047
-0.047
-0.046
-0.046
-0.045
-0.043
-0.042
-0.041
-0.039
-0.039
-0.038
-0.038
-0.036
-0.029
-0.024
-0.018
-0.009
-0.001
0.003
0.01
0.017
0.021
0.025
0.029
0.031
0.031
0.029
0.026
0.021
0.015
0.008
0.002
-0.006
-0.015
-0.022
-0.028
-0.033
-0.035
-0.036
-0.035
-0.036
-0.036
-0.035
-0.035
-0.035
-0.035
-0.034
-0.034
-0.034
-0.034
-0.033
-0.032
-0.032
-0.031
-0.031
-0.036
-0.041
-0.038
-0.023
0.005
0.048
0.104
0.162
0.219
0.276
0.332
0.382
0.411
0.414
0.368
0.321
0.256
0.188
0.121
0.08
0.013
-0.041
-0.078
-0.098
-0.101
-0.089
-0.076
-0.066
-0.06
-0.058
-0.056
-0.056
-0.055
-0.055
-0.055
-0.054
-0.053
-0.053
-0.052
-0.051
-0.051
-0.05
-0.05
-0.048
-0.044
-0.037
-0.029
-0.019
-0.009
-0.001
0.008
0.017
0.027
0.036
0.046
0.057
0.067
0.075
0.083
0.088
0.092
0.094
0.096
0.097
0.099
0.1
0.1
0.098
0.096
0.094
0.091
0.088
0.085
0.082
0.078
0.072
0.065
0.056
0.042
0.031
0.02
0.011
0.001
-0.004
-0.013
-0.022
-0.032
-0.041
-0.049
-0.054
-0.058
-0.059
-0.059
-0.057
-0.057
-0.056
-0.057
-0.057
-0.058
-0.057
-0.056
-0.054
-0.054
-0.052
-0.051
-0.051
-0.05
-0.05
-0.049
-0.049
-0.048
-0.047
-0.047
-0.046
-0.045
-0.044
-0.045
-0.044
-0.044
-0.044
-0.044
-0.043
-0.042
-0.041
-0.04
-0.04
-0.039
-0.039
-0.039
-0.038
-0.037
-0.036
-0.035
-0.035
-0.035
-0.035
-0.035
-0.035
-0.034
-0.033
-0.033
-0.032
-0.031
-0.032
-0.033
-0.032
-0.029
-0.025
-0.018
-0.009
0
0.009
0.017
0.023
0.028
0.031
0.034
0.034
0.034
0.033
0.031
0.027
0.021
0.015
0.008
-0
-0.009
-0.017
-0.023
-0.027
-0.031
-0.032
-0.034
-0.035
-0.036
-0.036
-0.036
-0.034
-0.033
-0.033
-0.032
-0.032
-0.031
-0.03
-0.03
-0.031
-0.03
-0.03
-0.032
-0.037
-0.035
-0.022
0.002
0.041
0.094
0.151
0.208
0.264
0.32
0.372
0.406
0.416
0.401
0.359
0.297
0.228
0.159
0.092
0.025
-0.033
-0.074
-0.098
-0.105
-0.095
-0.081
-0.072
-0.066
-0.063
-0.062
-0.062
-0.061
-0.06
-0.061
-0.061
-0.061
-0.061
-0.061
-0.061
-0.06
-0.059
-0.059
-0.058
-0.054
-0.048
-0.041
-0.032
-0.02
-0.011
-0.003
0.005
0.015
0.021
0.031
0.041
0.051
0.06
0.067
0.072
0.076
0.079
0.081
0.083
0.085
0.087
0.088
0.088
0.086
0.084
0.082
0.079
0.076
0.073
0.068
0.062
0.054
0.046
0.031
0.021
0.01
0
-0.01
-0.016
-0.024
-0.033
-0.041
-0.05
-0.058
-0.065
-0.071
-0.075
-0.076
-0.075
-0.075
-0.074
-0.073
-0.072
-0.071
-0.071
-0.07
-0.07
-0.07
-0.069
-0.069
-0.068
-0.067
-0.067
-0.066
-0.065
-0.065
-0.064
-0.063
-0.062
-0.062
-0.062
-0.061
-0.061
-0.061
-0.06
-0.059
-0.059
-0.059
-0.059
-0.059
-0.059
-0.057
-0.057
-0.056
-0.055
-0.054
-0.053
-0.052
-0.051
-0.05
-0.05
-0.049
-0.049
-0.049
-0.049
-0.05
-0.049
-0.048
-0.048
-0.048
-0.045
-0.038
-0.034
-0.027
-0.018
-0.011
-0.007
0.001
0.007
0.012
0.016
0.02
0.021
0.021
0.021
0.02
0.015
0.01
0.003
-0.004
-0.013
-0.022
-0.029
-0.036
-0.04
-0.044
-0.046
-0.046
-0.046
-0.047
-0.046
-0.044
-0.044
-0.044
-0.044
-0.043
-0.043
-0.042
-0.041
-0.04
-0.039
-0.039
-0.039
-0.041
-0.046
-0.044
-0.032
-0.008
0.029
0.081
0.139
0.195
0.252
0.31
0.364
0.4
0.41
0.396
0.355
0.292
0.223
0.129
0.061
-0.007
-0.066
-0.108
-0.105
-0.111
-0.101
-0.087
-0.076
-0.07
-0.067
-0.066
-0.065
-0.064
-0.062
-0.061
-0.061
-0.06
-0.061
-0.062
-0.062
-0.062
-0.062
-0.061
-0.06
-0.056
-0.051
-0.044
-0.035
-0.022
-0.013
-0.004
0.005
0.014
0.02
0.03
0.042
0.052
0.061
0.07
0.077
0.081
0.083
0.086
0.087
0.088
0.089
0.09
0.091
0.09
0.089
0.087
0.085
0.082
0.078
0.073
0.067
0.059
0.05
0.041
0.03
0.02
0.009
-0
-0.01
-0.018
-0.026
-0.035
-0.044
-0.052
-0.059
-0.064
-0.066
-0.067
-0.065
-0.064
-0.063
-0.063
-0.062
-0.062
-0.062
-0.062
-0.062
-0.062
-0.061
-0.06
-0.059
-0.058
-0.057
-0.056
-0.056
-0.055
-0.054
-0.054
-0.054
-0.054
-0.054
-0.054
-0.053
-0.052
-0.05
-0.049
-0.048
-0.047
-0.047
-0.048
-0.048
-0.047
-0.046
-0.045
-0.045
-0.044
-0.043
-0.042
-0.041
-0.039
-0.039
-0.039
-0.038
-0.038
-0.038
-0.037
-0.037
-0.036
-0.036
-0.036
-0.035
-0.03
-0.025
-0.019
-0.01
-0.001
0.004
0.012
0.019
0.024
0.029
0.031
0.033
0.033
0.033
0.031
0.027
0.021
0.015
0.007
-0.001
-0.01
-0.018
-0.024
-0.029
-0.032
-0.033
-0.032
-0.032
-0.032
-0.032
-0.032
-0.032
-0.032
-0.031
-0.03
-0.029
-0.029
-0.028
-0.028
-0.028
-0.027
-0.027
-0.029
-0.034
-0.034
-0.022
0.001
0.038
0.089
0.147
0.206
0.264
0.32
0.374
0.411
0.422
0.409
0.37
0.309
0.24
0.145
0.077
0.01
-0.047
-0.09
-0.089
-0.097
-0.09
-0.077
-0.066
-0.058
-0.055
-0.054
-0.054
-0.054
-0.053
-0.052
-0.051
-0.05
-0.048
-0.047
-0.047
-0.046
-0.046
-0.046
-0.045
-0.04
-0.035
-0.029
-0.02
-0.011
-0.002
0.007
0.017
0.026
0.036
0.046
0.055
0.064
0.073
0.08
0.086
0.091
0.094
0.096
0.099
0.099
0.1
0.1
0.099
0.097
0.094
0.092
0.089
0.085
0.081
0.077
0.07
0.063
0.055
0.045
0.035
0.024
0.015
0.003
-0.006
-0.015
-0.023
-0.032
-0.038
-0.047
-0.054
-0.059
-0.061
-0.062
-0.06
-0.06
-0.059
-0.059
-0.058
-0.058
-0.058
-0.057
-0.056
-0.056
-0.056
-0.056
-0.056
-0.055
-0.054
-0.052
-0.05
-0.05
-0.049
-0.048
-0.047
-0.046
-0.046
-0.047
-0.049
-0.05
-0.05
-0.05
-0.049
-0.047
-0.047
-0.047
-0.048
-0.046
-0.045
-0.045
-0.044
-0.043
-0.043
-0.043
-0.043
-0.042
-0.042
-0.042
-0.043
-0.042
-0.042
-0.043
-0.042
-0.041
-0.041
-0.041
-0.039
-0.036
-0.032
-0.026
-0.018
-0.009
-0.001
0.007
0.014
0.02
0.023
0.026
0.027
0.027
0.026
0.025
0.021
0.015
0.009
0.002
-0.007
-0.015
-0.023
-0.03
-0.036
-0.039
-0.041
-0.042
-0.042
-0.042
-0.042
-0.042
-0.042
-0.042
-0.041
-0.041
-0.04
-0.04
-0.039
-0.038
-0.038
-0.037
-0.037
-0.04
-0.045
-0.046
-0.036
-0.014
0.021
0.072
0.13
0.187
0.244
0.302
0.356
0.393
0.406
0.394
0.357
0.298
0.23
0.164
0.097
0.03
-0.031
-0.075
-0.102
-0.111
-0.103
-0.088
-0.076
-0.067
-0.064
-0.063
-0.063
-0.063
-0.062
-0.061
-0.061
-0.06
-0.06
-0.06
-0.06
-0.059
-0.059
-0.059
-0.057
-0.054
-0.05
-0.043
-0.035
-0.026
-0.017
-0.008
-0
0.012
0.022
0.031
0.042
0.053
0.058
0.066
0.072
0.077
0.08
0.083
0.084
0.085
0.085
0.086
0.086
0.085
0.083
0.082
0.079
0.075
0.072
0.068
0.062
0.055
0.047
0.037
0.026
0.016
0.006
-0.008
-0.016
-0.025
-0.032
-0.041
-0.046
-0.055
-0.063
-0.069
-0.073
-0.075
-0.076
-0.076
-0.076
-0.075
-0.073
-0.072
-0.071
-0.069
-0.069
-0.068
-0.067
-0.065
-0.064
-0.064
-0.064
-0.064
-0.063
-0.063
-0.063
-0.062
-0.062
-0.062
-0.061
-0.06
-0.06
-0.059
-0.059
-0.059
-0.06
-0.06
-0.06
-0.059
-0.059
-0.058
-0.056
-0.055
-0.054
-0.053
-0.052
-0.053
-0.053
-0.052
-0.052
-0.051
-0.05
-0.048
-0.048
-0.047
-0.047
-0.046
-0.046
-0.047
-0.046
-0.039
-0.035
-0.029
-0.02
-0.01
-0.005
0.003
0.01
0.015
0.019
0.023
0.024
0.023
0.022
0.02
0.017
0.011
0.005
-0.003
-0.011
-0.02
-0.026
-0.031
-0.035
-0.038
-0.04
-0.04
-0.041
-0.041
-0.041
-0.04
-0.041
-0.041
-0.04
-0.039
-0.038
-0.037
-0.037
-0.035
-0.035
-0.035
-0.034
-0.036
-0.04
-0.04
-0.03
-0.009
0.026
0.076
0.133
0.19
0.247
0.303
0.356
0.395
0.41
0.4
0.365
0.307
0.239
0.171
0.102
0.035
-0.026
-0.063
-0.091
-0.102
-0.095
-0.081
-0.077
-0.069
-0.065
-0.064
-0.064
-0.064
-0.063
-0.063
-0.063
-0.062
-0.061
-0.062
-0.061
-0.06
-0.06
-0.059
-0.057
-0.053
-0.048
-0.041
-0.032
-0.021
-0.011
-0.003
0.005
0.02
0.029
0.038
0.049
0.06
0.063
0.072
0.079
0.084
0.089
0.092
0.095
0.096
0.097
0.096
0.095
0.093
0.09
0.088
0.085
0.082
0.079
0.075
0.069
0.062
0.053
0.043
0.033
0.023
0.014
0.005
-0.003
-0.012
-0.02
-0.028
-0.037
-0.046
-0.053
-0.06
-0.063
-0.065
-0.065
-0.064
-0.063
-0.063
-0.062
-0.062
-0.062
-0.06
-0.059
-0.057
-0.055
-0.054
-0.052
-0.051
-0.049
-0.048
-0.047
-0.047
-0.048
-0.049
-0.05
-0.051
-0.051
-0.051
-0.05
-0.049
-0.048
-0.047
-0.046
-0.045
-0.045
-0.044
-0.043
-0.041
-0.04
-0.039
-0.039
-0.039
-0.038
-0.038
-0.038
-0.038
-0.037
-0.037
-0.036
-0.036
-0.035
-0.035
-0.034
-0.033
-0.031
-0.031
-0.03
-0.028
-0.024
-0.018
-0.011
-0.002
0.007
0.014
0.022
0.028
0.032
0.035
0.036
0.036
0.035
0.033
0.03
0.025
0.02
0.013
0.003
-0.007
-0.015
-0.021
-0.025
-0.028
-0.029
-0.03
-0.031
-0.031
-0.031
-0.031
-0.031
-0.031
-0.03
-0.03
-0.03
-0.029
-0.029
-0.028
-0.027
-0.027
-0.027
-0.029
-0.034
-0.036
-0.026
-0.006
0.028
0.078
0.136
0.193
0.249
0.305
0.36
0.401
0.418
0.411
0.378
0.32
0.251
0.183
0.116
0.048
-0.015
-0.055
-0.084
-0.096
-0.09
-0.075
-0.071
-0.064
-0.06
-0.059
-0.059
-0.059
-0.059
-0.059
-0.06
-0.059
-0.059
-0.058
-0.058
-0.057
-0.056
-0.056
-0.055
-0.052
-0.047
-0.041
-0.033
-0.022
-0.013
-0.004
0.005
0.014
0.023
0.033
0.042
0.052
0.061
0.069
0.077
0.083
0.088
0.091
0.093
0.095
0.096
0.096
0.095
0.094
0.091
0.088
0.085
0.082
0.079
0.076
0.071
0.065
0.057
0.048
0.037
0.026
0.015
0.004
-0.006
-0.016
-0.025
-0.037
-0.045
-0.054
-0.061
-0.066
-0.067
-0.069
-0.07
-0.07
-0.07
-0.069
-0.068
-0.067
-0.066
-0.065
-0.065
-0.066
-0.065
-0.065
-0.064
-0.064
-0.064
-0.062
-0.061
-0.06
-0.059
-0.058
-0.058
-0.058
-0.057
-0.057
-0.056
-0.056
-0.055
-0.055
-0.054
-0.054
-0.052
-0.051
-0.05
-0.049
-0.049
-0.048
-0.048
-0.048
-0.048
-0.048
-0.048
-0.047
-0.047
-0.046
-0.046
-0.046
-0.046
-0.046
-0.045
-0.045
-0.045
-0.046
-0.045
-0.042
-0.038
-0.033
-0.025
-0.017
-0.009
-0.002
0.005
0.012
0.017
0.021
0.023
0.023
0.022
0.019
0.015
0.008
0.001
-0.006
-0.014
-0.023
-0.03
-0.036
-0.041
-0.045
-0.046
-0.046
-0.045
-0.045
-0.044
-0.044
-0.044
-0.044
-0.044
-0.044
-0.045
-0.045
-0.044
-0.044
-0.044
-0.043
-0.042
-0.043
-0.047
-0.049
-0.04
-0.019
0.013
0.061
0.118
0.176
0.234
0.29
0.345
0.387
0.405
0.399
0.367
0.311
0.243
0.176
0.108
0.04
-0.022
-0.069
-0.099
-0.113
-0.108
-0.094
-0.082
-0.074
-0.069
-0.067
-0.066
-0.066
-0.066
-0.065
-0.065
-0.066
-0.065
-0.063
-0.062
-0.061
-0.06
-0.059
-0.059
-0.056
-0.053
-0.047
-0.039
-0.029
-0.019
-0.01
-0.002
0.007
0.015
0.023
0.033
0.045
0.054
0.063
0.07
0.076
0.078
0.081
0.083
0.084
0.085
0.086
0.086
0.085
0.084
0.082
0.08
0.076
0.073
0.069
0.062
0.054
0.046
0.036
0.025
0.014
0.005
-0.004
-0.013
-0.021
-0.029
-0.042
-0.051
-0.06
-0.068
-0.074
-0.073
-0.075
-0.074
-0.074
-0.073
-0.072
-0.07
-0.07
-0.069
-0.068
-0.067
-0.066
-0.066
-0.065
-0.064
-0.064
-0.063
-0.061
-0.06
-0.06
-0.058
-0.057
-0.057
-0.057
-0.056
-0.056
-0.056
-0.056
-0.056
-0.056
-0.056
-0.056
-0.056
-0.054
-0.054
-0.054
-0.053
-0.051
-0.051
-0.05
-0.048
-0.048
-0.047
-0.046
-0.045
-0.043
-0.042
-0.042
-0.042
-0.042
-0.043
-0.042
-0.041
-0.041
-0.04
-0.037
-0.033
-0.027
-0.019
-0.007
0.002
0.01
0.018
0.025
0.026
0.028
0.03
0.03
0.028
0.027
0.024
0.019
0.013
0.006
-0.002
-0.011
-0.019
-0.025
-0.03
-0.033
-0.034
-0.035
-0.035
-0.035
-0.035
-0.035
-0.034
-0.034
-0.034
-0.033
-0.033
-0.032
-0.031
-0.03
-0.03
-0.029
-0.028
-0.029
-0.033
-0.036
-0.029
-0.01
0.022
0.07
0.128
0.185
0.241
0.297
0.352
0.396
0.416
0.411
0.381
0.326
0.258
0.19
0.123
0.055
-0.008
-0.056
-0.087
-0.101
-0.097
-0.083
-0.071
-0.063
-0.058
-0.056
-0.056
-0.055
-0.055
-0.055
-0.055
-0.055
-0.054
-0.052
-0.051
-0.049
-0.049
-0.049
-0.049
-0.046
-0.042
-0.035
-0.028
-0.018
-0.01
-0.002
0.007
0.017
0.026
0.036
0.046
0.061
0.071
0.08
0.088
0.093
0.093
0.095
0.096
0.097
0.098
0.1
0.1
0.099
0.098
0.095
0.093
0.09
0.087
0.084
0.078
0.07
0.062
0.052
0.041
0.03
0.021
0.012
0.003
-0.006
-0.015
-0.023
-0.032
-0.042
-0.049
-0.054
-0.058
-0.06
-0.06
-0.058
-0.058
-0.057
-0.056
-0.055
-0.056
-0.056
-0.055
-0.055
-0.054
-0.053
-0.053
-0.053
-0.052
-0.052
-0.051
-0.051
-0.05
-0.049
-0.049
-0.048
-0.046
-0.045
-0.045
-0.045
-0.045
-0.044
-0.044
-0.043
-0.041
-0.04
-0.041
-0.041
-0.041
-0.042
-0.042
-0.042
-0.042
-0.043
-0.043
-0.042
-0.041
-0.041
-0.041
-0.041
-0.041
-0.04
-0.04
-0.039
-0.038
-0.037
-0.036
-0.033
-0.029
-0.023
-0.016
-0.008
0.001
0.01
0.017
0.024
0.029
0.032
0.034
0.034
0.032
0.03
0.026
0.02
0.013
0.006
-0.002
-0.01
-0.018
-0.025
-0.03
-0.034
-0.036
-0.036
-0.035
-0.036
-0.036
-0.035
-0.035
-0.035
-0.034
-0.033
-0.033
-0.033
-0.032
-0.033
-0.032
-0.032
-0.031
-0.032
-0.036
-0.04
-0.033
-0.015
0.016
0.063
0.12
0.177
0.234
0.292
0.346
0.39
0.412
0.408
0.379
0.326
0.258
0.19
0.122
0.054
-0.01
-0.058
-0.09
-0.106
-0.103
-0.09
-0.077
-0.068
-0.062
-0.061
-0.06
-0.06
-0.059
-0.059
-0.059
-0.058
-0.058
-0.058
-0.058
-0.057
-0.057
-0.057
-0.057
-0.054
-0.051
-0.046
-0.038
-0.028
-0.018
-0.008
0.001
0.011
0.02
0.029
0.038
0.048
0.057
0.066
0.073
0.079
0.083
0.085
0.086
0.087
0.088
0.088
0.089
0.088
0.086
0.084
0.081
0.078
0.075
0.072
0.066
0.059
0.05
0.04
0.028
0.016
0.005
-0.006
-0.015
-0.024
-0.032
-0.04
-0.048
-0.055
-0.061
-0.066
-0.071
-0.073
-0.074
-0.074
-0.073
-0.073
-0.073
-0.072
-0.072
-0.072
-0.071
-0.07
-0.069
-0.069
-0.069
-0.069
-0.069
-0.068
-0.067
-0.067
-0.066
-0.065
-0.064
-0.064
-0.062
-0.061
-0.06
-0.059
-0.059
-0.058
-0.057
-0.057
-0.056
-0.055
-0.054
-0.054
-0.053
-0.054
-0.054
-0.055
-0.054
-0.054
-0.053
-0.051
-0.049
-0.048
-0.048
-0.048
-0.048
-0.048
-0.049
-0.049
-0.048
-0.049
-0.049
-0.047
-0.043
-0.037
-0.031
-0.021
-0.012
-0.005
0.002
0.009
0.014
0.017
0.019
0.021
0.02
0.018
0.016
0.012
0.005
-0.001
-0.009
-0.018
-0.026
-0.033
-0.039
-0.043
-0.045
-0.045
-0.045
-0.046
-0.046
-0.046
-0.046
-0.045
-0.045
-0.044
-0.044
-0.043
-0.043
-0.042
-0.042
-0.042
-0.041
-0.041
-0.045
-0.048
-0.04
-0.021
0.011
0.059
0.118
0.175
0.23
0.286
0.34
0.383
0.403
0.398
0.367
0.312
0.244
0.176
0.108
0.041
-0.021
-0.068
-0.099
-0.112
-0.107
-0.093
-0.081
-0.073
-0.069
-0.067
-0.067
-0.067
-0.066
-0.065
-0.064
-0.064
-0.063
-0.062
-0.062
-0.062
-0.062
-0.061
-0.061
-0.057
-0.053
-0.046
-0.038
-0.029
-0.019
-0.01
-0.001
0.009
0.018
0.027
0.035
0.045
0.054
0.062
0.069
0.077
0.081
0.085
0.088
0.089
0.087
0.087
0.087
0.085
0.084
0.082
0.081
0.079
0.075
0.071
0.066
0.059
0.05
0.042
0.032
0.022
0.012
0.002
-0.008
-0.018
-0.027
-0.036
-0.045
-0.053
-0.06
-0.065
-0.068
-0.07
-0.07
-0.069
-0.068
-0.067
-0.066
-0.065
-0.064
-0.062
-0.061
-0.061
-0.06
-0.059
-0.058
-0.057
-0.056
-0.055
-0.055
-0.055
-0.056
-0.056
-0.055
-0.054
-0.053
-0.051
-0.05
-0.049
-0.048
-0.047
-0.047
-0.047
-0.046
-0.047
-0.046
-0.046
-0.044
-0.043
-0.042
-0.041
-0.04
-0.041
-0.041
-0.04
-0.039
-0.039
-0.039
-0.039
-0.039
-0.039
-0.04
-0.039
-0.039
-0.039
-0.039
-0.036
-0.032
-0.023
-0.015
-0.006
0.003
0.012
0.017
0.023
0.028
0.031
0.033
0.033
0.033
0.031
0.028
0.023
0.017
0.01
0.002
-0.007
-0.015
-0.021
-0.026
-0.03
-0.032
-0.033
-0.034
-0.035
-0.035
-0.035
-0.034
-0.033
-0.032
-0.03
-0.03
-0.03
-0.03
-0.029
-0.029
-0.028
-0.027
-0.026
-0.03
-0.033
-0.027
-0.01
0.02
0.064
0.12
0.177
0.234
0.291
0.346
0.393
0.417
0.417
0.391
0.341
0.274
0.206
0.138
0.069
0.004
-0.047
-0.081
-0.098
-0.096
-0.082
-0.069
-0.06
-0.055
-0.053
-0.053
-0.054
-0.054
-0.053
-0.053
-0.052
-0.05
-0.05
-0.05
-0.049
-0.049
-0.048
-0.046
-0.043
-0.039
-0.035
-0.028
-0.019
-0.01
-0.001
0.008
0.017
0.025
0.035
0.044
0.054
0.064
0.073
0.08
0.087
0.091
0.093
0.097
0.099
0.099
0.1
0.101
0.1
0.098
0.096
0.092
0.088
0.084
0.081
0.076
0.07
0.062
0.054
0.044
0.033
0.024
0.015
0.006
-0.003
-0.012
-0.02
-0.029
-0.039
-0.047
-0.053
-0.057
-0.059
-0.059
-0.059
-0.059
-0.059
-0.059
-0.058
-0.058
-0.058
-0.057
-0.055
-0.055
-0.054
-0.054
-0.054
-0.054
-0.053
-0.052
-0.052
-0.052
-0.051
-0.051
-0.05
-0.049
-0.049
-0.048
-0.048
-0.048
-0.047
-0.046
-0.046
-0.045
-0.044
-0.044
-0.045
-0.044
-0.043
-0.044
-0.044
-0.043
-0.044
-0.044
-0.044
-0.044
-0.044
-0.043
-0.043
-0.043
-0.043
-0.043
-0.042
-0.041
-0.041
-0.04
-0.038
-0.034
-0.029
-0.023
-0.014
-0.005
0.003
0.011
0.018
0.023
0.027
0.029
0.029
0.028
0.026
0.023
0.019
0.013
0.007
-0.001
-0.01
-0.018
-0.025
-0.031
-0.035
-0.038
-0.04
-0.041
-0.042
-0.042
-0.042
-0.042
-0.042
-0.041
-0.04
-0.039
-0.039
-0.038
-0.037
-0.036
-0.036
-0.036
-0.036
-0.04
-0.045
-0.041
-0.025
0.003
0.046
0.102
0.16
0.217
0.273
0.329
0.377
0.403
0.404
0.38
0.331
0.265
0.196
0.128
0.061
-0.005
-0.058
-0.093
-0.11
-0.111
-0.098
-0.085
-0.076
-0.071
-0.07
-0.069
-0.069
-0.068
-0.066
-0.065
-0.064
-0.064
-0.064
-0.064
-0.064
-0.063
-0.063
-0.062
-0.059
-0.055
-0.049
-0.042
-0.033
-0.024
-0.015
-0.007
0.002
0.01
0.019
0.029
0.039
0.049
0.059
0.067
0.073
0.077
0.08
0.082
0.084
0.085
0.086
0.086
0.085
0.083
0.081
0.078
0.075
0.073
0.069
0.065
0.059
0.052
0.044
0.034
0.024
0.013
0.002
-0.009
-0.019
-0.029
-0.038
-0.047
-0.056
-0.063
-0.067
-0.071
-0.074
-0.075
-0.075
-0.076
-0.076
-0.074
-0.073
-0.073
-0.071
-0.07
-0.07
-0.069
-0.068
-0.067
-0.067
-0.066
-0.065
-0.064
-0.064
-0.063
-0.062
-0.062
-0.062
-0.062
-0.062
-0.062
-0.062
-0.061
-0.06
-0.059
-0.057
-0.056
-0.056
-0.056
-0.056
-0.054
-0.053
-0.052
-0.052
-0.051
-0.051
-0.05
-0.05
-0.05
-0.05
-0.05
-0.051
-0.05
-0.05
-0.049
-0.049
-0.049
-0.049
-0.049
-0.047
-0.043
-0.038
-0.032
-0.023
-0.014
-0.006
0.003
0.011
0.016
0.02
0.023
0.024
0.023
0.022
0.019
0.015
0.009
0.001
-0.007
-0.016
-0.024
-0.031
-0.036
-0.039
-0.042
-0.042
-0.042
-0.043
-0.043
-0.042
-0.041
-0.042
-0.041
-0.04
-0.04
-0.04
-0.039
-0.038
-0.038
-0.037
-0.037
-0.04
-0.043
-0.047
-0.043
-0.026
0.006
0.049
0.103
0.16
0.216
0.273
0.33
0.379
0.406
0.409
0.386
0.338
0.274
0.18
0.112
0.044
-0.021
-0.074
-0.083
-0.102
-0.104
-0.091
-0.078
-0.07
-0.065
-0.063
-0.063
-0.063
-0.062
-0.06
-0.059
-0.057
-0.056
-0.055
-0.055
-0.055
-0.055
-0.054
-0.053
-0.05
-0.046
-0.04
-0.033
-0.023
-0.013
-0.005
0.004
0.013
0.02
0.029
0.039
0.049
0.058
0.068
0.076
0.082
0.087
0.091
0.093
0.094
0.095
0.095
0.095
0.094
0.092
0.09
0.087
0.083
0.08
0.077
0.073
0.068
0.06
0.052
0.042
0.03
0.02
0.011
0.001
-0.007
-0.016
-0.025
-0.035
-0.044
-0.052
-0.058
-0.061
-0.064
-0.064
-0.063
-0.062
-0.061
-0.059
-0.057
-0.057
-0.056
-0.055
-0.055
-0.055
-0.054
-0.054
-0.054
-0.053
-0.052
-0.052
-0.052
-0.051
-0.05
-0.05
-0.051
-0.051
-0.05
-0.049
-0.049
-0.048
-0.046
-0.046
-0.046
-0.045
-0.044
-0.043
-0.042
-0.041
-0.04
-0.039
-0.038
-0.038
-0.037
-0.038
-0.038
-0.037
-0.036
-0.036
-0.035
-0.034
-0.034
-0.035
-0.034
-0.033
-0.033
-0.032
-0.03
-0.027
-0.022
-0.015
-0.006
0.003
0.012
0.02
0.026
0.032
0.035
0.037
0.036
0.036
0.033
0.03
0.026
0.021
0.014
0.006
-0.003
-0.011
-0.018
-0.023
-0.027
-0.03
-0.031
-0.032
-0.032
-0.033
-0.032
-0.032
-0.033
-0.032
-0.031
-0.03
-0.03
-0.029
-0.028
-0.028
-0.029
-0.029
-0.034
-0.038
-0.043
-0.038
-0.022
0.01
0.051
0.106
0.164
0.222
0.279
0.335
0.385
0.415
0.418
0.397
0.351
0.286
0.217
0.149
0.082
0.016
-0.038
-0.076
-0.097
-0.1
-0.089
-0.076
-0.066
-0.061
-0.059
-0.058
-0.057
-0.056
-0.055
-0.055
-0.055
-0.055
-0.054
-0.053
-0.052
-0.051
-0.05
-0.05
-0.048
-0.045
-0.04
-0.033
-0.024
-0.015
-0.006
0.003
0.012
0.02
0.031
0.04
0.051
0.061
0.069
0.076
0.082
0.086
0.089
0.091
0.094
0.096
0.097
0.099
0.098
0.096
0.092
0.089
0.086
0.084
0.08
0.076
0.068
0.06
0.051
0.041
0.03
0.02
0.01
0.001
-0.007
-0.016
-0.025
-0.035
-0.045
-0.054
-0.06
-0.064
-0.065
-0.065
-0.065
-0.065
-0.064
-0.064
-0.064
-0.063
-0.063
-0.062
-0.063
-0.062
-0.062
-0.062
-0.062
-0.061
-0.061
-0.061
-0.061
-0.06
-0.058
-0.058
-0.057
-0.056
-0.055
-0.054
-0.054
-0.053
-0.052
-0.052
-0.052
-0.052
-0.051
-0.051
-0.051
-0.051
-0.051
-0.051
-0.052
-0.051
-0.051
-0.051
-0.05
-0.049
-0.048
-0.048
-0.047
-0.046
-0.046
-0.046
-0.045
-0.045
-0.045
-0.045
-0.044
-0.041
-0.036
-0.03
-0.021
-0.014
-0.006
0.002
0.009
0.016
0.022
0.025
0.026
0.026
0.024
0.021
0.015
0.01
0.004
-0.003
-0.013
-0.02
-0.028
-0.034
-0.039
-0.042
-0.042
-0.042
-0.043
-0.043
-0.043
-0.042
-0.042
-0.042
-0.041
-0.042
-0.041
-0.041
-0.039
-0.039
-0.038
-0.038
-0.039
-0.043
-0.048
-0.045
-0.03
-0.003
0.038
0.093
0.15
0.207
0.264
0.321
0.371
0.4
0.405
0.386
0.341
0.278
0.211
0.143
0.075
0.009
-0.047
-0.085
-0.107
-0.112
-0.101
-0.088
-0.078
-0.072
-0.069
-0.068
-0.067
-0.067
-0.066
-0.066
-0.066
-0.065
-0.064
-0.063
-0.063
-0.062
-0.062
-0.061
-0.059
-0.055
-0.049
-0.043
-0.034
-0.025
-0.016
-0.007
0.002
0.01
0.019
0.029
0.039
0.05
0.06
0.067
0.075
0.079
0.083
0.086
0.089
0.089
0.088
0.087
0.086
0.084
0.081
0.079
0.077
0.073
0.07
0.066
0.059
0.051
0.041
0.031
0.02
0.01
-0
-0.009
-0.018
-0.026
-0.034
-0.043
-0.052
-0.06
-0.067
-0.072
-0.074
-0.074
-0.072
-0.071
-0.071
-0.071
-0.07
-0.071
-0.07
-0.068
-0.067
-0.068
-0.068
-0.068
-0.069
-0.068
-0.067
-0.065
-0.063
-0.062
-0.061
-0.06
-0.06
-0.059
-0.058
-0.057
-0.057
-0.057
-0.056
-0.056
-0.056
-0.055
-0.055
-0.054
-0.054
-0.054
-0.054
-0.054
-0.054
-0.053
-0.052
-0.051
-0.051
-0.05
-0.049
-0.048
-0.047
-0.047
-0.046
-0.046
-0.046
-0.045
-0.045
-0.045
-0.044
-0.042
-0.037
-0.03
-0.021
-0.011
-0.002
0.006
0.013
0.018
0.023
0.026
0.028
0.029
0.028
0.026
0.024
0.018
0.011
0.003
-0.005
-0.014
-0.022
-0.028
-0.032
-0.036
-0.037
-0.037
-0.037
-0.037
-0.037
-0.036
-0.036
-0.035
-0.034
-0.034
-0.034
-0.034
-0.034
-0.035
-0.035
-0.034
-0.034
-0.036
-0.04
-0.038
-0.001
0.025
0.064
0.118
0.177
0.211
0.268
0.324
0.375
0.407
0.415
0.397
0.354
0.29
0.221
0.153
0.086
0.021
-0.034
-0.074
-0.096
-0.101
-0.091
-0.078
-0.068
-0.061
-0.059
-0.058
-0.058
-0.058
-0.057
-0.057
-0.057
-0.055
-0.054
-0.054
-0.053
-0.052
-0.049
-0.048
-0.047
-0.042
-0.036
-0.031
-0.021
-0.012
-0.003
0.005
0.013
0.021
0.029
0.039
0.048
0.059
0.069
0.078
0.084
0.089
0.092
0.093
0.095
0.096
0.097
0.098
0.097
0.096
0.094
0.092
0.089
0.087
0.083
0.078
0.072
0.064
0.054
0.042
0.031
0.021
0.011
0.002
-0.006
-0.014
-0.022
-0.03
-0.038
-0.047
-0.053
-0.057
-0.06
-0.061
-0.06
-0.059
-0.058
-0.057
-0.057
-0.057
-0.057
-0.056
-0.056
-0.055
-0.054
-0.053
-0.052
-0.052
-0.051
-0.051
-0.051
-0.051
-0.051
-0.051
-0.05
-0.05
-0.049
-0.048
-0.048
-0.047
-0.046
-0.046
-0.045
-0.045
-0.044
-0.043
-0.043
-0.042
-0.041
-0.04
-0.04
-0.04
-0.039
-0.039
-0.038
-0.038
-0.037
-0.037
-0.037
-0.036
-0.035
-0.035
-0.035
-0.035
-0.035
-0.034
-0.032
-0.029
-0.025
-0.018
-0.01
-0.002
0.007
0.015
0.022
0.028
0.032
0.035
0.036
0.036
0.035
0.032
0.028
0.022
0.014
0.006
-0.001
-0.01
-0.018
-0.024
-0.029
-0.033
-0.035
-0.035
-0.035
-0.036
-0.034
-0.033
-0.033
-0.032
-0.031
-0.031
-0.031
-0.031
-0.032
-0.033
-0.034
-0.034
-0.033
-0.034
-0.039
-0.038
-0.002
0.022
0.06
0.114
0.172
0.204
0.261
0.319
0.371
0.404
0.413
0.398
0.356
0.294
0.226
0.159
0.091
0.023
-0.035
-0.076
-0.1
-0.107
-0.098
-0.085
-0.075
-0.069
-0.067
-0.066
-0.065
-0.064
-0.062
-0.062
-0.062
-0.062
-0.061
-0.061
-0.059
-0.058
-0.057
-0.057
-0.056
-0.052
-0.047
-0.041
-0.032
-0.022
-0.014
-0.004
0.005
0.014
0.023
0.032
0.041
0.051
0.061
0.069
0.075
0.081
0.084
0.086
0.089
0.091
0.091
0.092
0.089
0.087
0.084
0.081
0.078
0.077
0.073
0.069
0.063
0.055
0.046
0.036
0.025
0.014
0.004
-0.006
-0.015
-0.024
-0.032
-0.041
-0.05
-0.059
-0.066
-0.071
-0.074
-0.074
-0.073
-0.072
-0.072
-0.072
-0.071
-0.071
-0.071
-0.07
-0.069
-0.069
-0.068
-0.067
-0.065
-0.064
-0.063
-0.062
-0.062
-0.061
-0.06
-0.059
-0.059
-0.058
-0.058
-0.058
-0.057
-0.056
-0.056
-0.056
-0.056
-0.056
-0.056
-0.056
-0.056
-0.055
-0.054
-0.054
-0.053
-0.052
-0.053
-0.053
-0.052
-0.052
-0.052
-0.051
-0.051
-0.05
-0.049
-0.048
-0.047
-0.046
-0.046
-0.045
-0.044
-0.042
-0.038
-0.032
-0.023
-0.015
-0.007
0
0.007
0.012
0.016
0.019
0.02
0.02
0.019
0.017
0.014
0.009
0.002
-0.006
-0.014
-0.024
-0.031
-0.037
-0.04
-0.043
-0.045
-0.045
-0.046
-0.047
-0.047
-0.046
-0.046
-0.045
-0.043
-0.043
-0.043
-0.042
-0.041
-0.041
-0.042
-0.041
-0.04
-0.042
-0.047
-0.045
-0.033
-0.009
0.028
0.079
0.137
0.194
0.25
0.306
0.36
0.396
0.408
0.394
0.355
0.294
0.225
0.155
0.087
0.02
-0.038
-0.08
-0.104
-0.111
-0.102
-0.088
-0.077
-0.07
-0.067
-0.066
-0.066
-0.065
-0.064
-0.063
-0.063
-0.062
-0.061
-0.062
-0.063
-0.062
-0.061
-0.061
-0.059
-0.055
-0.05
-0.043
-0.033
-0.023
-0.013
-0.004
0.006
0.015
0.024
0.034
0.044
0.053
0.062
0.069
0.076
0.08
0.084
0.086
0.088
0.089
0.09
0.091
0.091
0.089
0.087
0.085
0.083
0.081
0.077
0.074
0.069
0.06
0.049
0.038
0.027
0.016
0.008
-0.001
-0.009
-0.017
-0.026
-0.035
-0.045
-0.053
-0.059
-0.063
-0.065
-0.066
-0.065
-0.065
-0.066
-0.066
-0.065
-0.064
-0.064
-0.062
-0.061
-0.061
-0.06
-0.06
-0.058
-0.058
-0.057
-0.055
-0.055
-0.055
-0.054
-0.054
-0.053
-0.052
-0.052
-0.051
-0.051
-0.05
-0.048
-0.047
-0.045
-0.044
-0.044
-0.045
-0.047
-0.047
-0.046
-0.045
-0.044
-0.042
-0.04
-0.041
-0.041
-0.04
-0.042
-0.042
-0.042
-0.041
-0.041
-0.04
-0.04
-0.039
-0.04
-0.04
-0.038
-0.035
-0.03
-0.023
-0.015
-0.007
0.002
0.01
0.018
0.024
0.029
0.032
0.033
0.034
0.033
0.03
0.026
0.02
0.012
0.005
-0.003
-0.011
-0.018
-0.024
-0.029
-0.032
-0.034
-0.034
-0.035
-0.036
-0.037
-0.036
-0.036
-0.035
-0.033
-0.032
-0.031
-0.031
-0.03
-0.031
-0.031
-0.031
-0.03
-0.031
-0.036
-0.036
-0.024
-0.001
0.035
0.087
0.168
0.224
0.281
0.339
0.393
0.406
0.419
0.406
0.367
0.306
0.239
0.171
0.104
0.036
-0.024
-0.066
-0.092
-0.101
-0.092
-0.078
-0.067
-0.059
-0.056
-0.056
-0.056
-0.057
-0.057
-0.056
-0.056
-0.055
-0.053
-0.052
-0.052
-0.051
-0.05
-0.05
-0.049
-0.045
-0.038
-0.03
-0.021
-0.011
-0.002
0.006
0.013
0.022
0.03
0.04
0.051
0.061
0.07
0.077
0.084
0.088
0.091
0.093
0.095
0.097
0.098
0.099
0.1
0.098
0.095
0.093
0.088
0.084
0.081
0.077
0.071
0.066
0.057
0.047
0.036
0.025
0.014
0.004
-0.005
-0.013
-0.02
-0.028
-0.037
-0.045
-0.052
-0.058
-0.061
-0.062
-0.062
-0.061
-0.061
-0.061
-0.06
-0.06
-0.059
-0.057
-0.057
-0.056
-0.056
-0.056
-0.056
-0.055
-0.055
-0.054
-0.053
-0.053
-0.051
-0.049
-0.048
-0.048
-0.047
-0.047
-0.048
-0.048
-0.048
-0.048
-0.048
-0.047
-0.046
-0.046
-0.045
-0.044
-0.044
-0.044
-0.044
-0.044
-0.045
-0.045
-0.044
-0.043
-0.043
-0.043
-0.043
-0.042
-0.041
-0.04
-0.039
-0.038
-0.037
-0.037
-0.036
-0.034
-0.03
-0.025
-0.018
-0.01
-0.002
0.006
0.013
0.019
0.023
0.025
0.026
0.027
0.026
0.024
0.021
0.016
0.009
0.002
-0.008
-0.017
-0.026
-0.032
-0.036
-0.037
-0.039
-0.04
-0.04
-0.041
-0.04
-0.039
-0.039
-0.039
-0.037
-0.037
-0.037
-0.037
-0.035
-0.035
-0.035
-0.035
-0.035
-0.038
-0.044
-0.046
-0.035
-0.012
0.024
0.074
0.157
0.215
0.271
0.327
0.38
0.393
0.406
0.394
0.357
0.298
0.23
0.161
0.093
0.026
-0.033
-0.077
-0.104
-0.113
-0.106
-0.093
-0.082
-0.074
-0.071
-0.069
-0.068
-0.066
-0.065
-0.064
-0.065
-0.065
-0.065
-0.065
-0.065
-0.065
-0.064
-0.063
-0.061
-0.058
-0.052
-0.045
-0.037
-0.028
-0.019
-0.011
-0.003
0.005
0.015
0.025
0.034
0.043
0.052
0.059
0.065
0.07
0.075
0.077
0.079
0.081
0.082
0.084
0.086
0.086
0.084
0.082
0.077
0.073
0.069
0.065
0.061
0.054
0.045
0.034
0.024
0.013
0.004
-0.005
-0.014
-0.023
-0.032
-0.041
-0.05
-0.059
-0.067
-0.072
-0.076
-0.078
-0.077
-0.076
-0.075
-0.074
-0.074
-0.074
-0.075
-0.074
-0.073
-0.072
-0.071
-0.069
-0.068
-0.067
-0.067
-0.066
-0.065
-0.065
-0.065
-0.064
-0.063
-0.063
-0.062
-0.061
-0.06
-0.06
-0.059
-0.06
-0.06
-0.06
-0.059
-0.059
-0.058
-0.057
-0.056
-0.055
-0.054
-0.053
-0.052
-0.051
-0.051
-0.05
-0.05
-0.05
-0.049
-0.049
-0.048
-0.048
-0.048
-0.049
-0.049
-0.049
-0.047
-0.043
-0.038
-0.031
-0.024
-0.016
-0.008
-0.001
0.006
0.013
0.017
0.02
0.022
0.023
0.022
0.02
0.017
0.012
0.007
0
-0.011
-0.02
-0.028
-0.034
-0.039
-0.039
-0.04
-0.041
-0.042
-0.043
-0.042
-0.042
-0.041
-0.04
-0.039
-0.038
-0.037
-0.036
-0.035
-0.034
-0.034
-0.034
-0.033
-0.035
-0.04
-0.042
-0.031
-0.01
0.025
0.075
0.133
0.19
0.246
0.303
0.358
0.397
0.412
0.403
0.368
0.31
0.242
0.175
0.108
0.039
-0.022
-0.068
-0.096
-0.106
-0.099
-0.085
-0.073
-0.065
-0.062
-0.063
-0.063
-0.064
-0.063
-0.063
-0.062
-0.061
-0.06
-0.059
-0.058
-0.057
-0.056
-0.055
-0.053
-0.048
-0.039
-0.032
-0.024
-0.014
-0.005
-0
0.009
0.017
0.025
0.035
0.045
0.054
0.064
0.073
0.081
0.086
0.091
0.094
0.096
0.097
0.097
0.097
0.097
0.096
0.095
0.093
0.091
0.087
0.083
0.078
0.073
0.065
0.057
0.048
0.038
0.028
0.018
0.008
-0.002
-0.011
-0.02
-0.029
-0.038
-0.046
-0.053
-0.059
-0.062
-0.064
-0.063
-0.062
-0.062
-0.061
-0.06
-0.059
-0.059
-0.059
-0.058
-0.056
-0.056
-0.055
-0.053
-0.051
-0.05
-0.049
-0.047
-0.048
-0.048
-0.048
-0.048
-0.049
-0.049
-0.049
-0.048
-0.048
-0.047
-0.046
-0.045
-0.045
-0.045
-0.045
-0.044
-0.044
-0.043
-0.042
-0.042
-0.042
-0.041
-0.041
-0.041
-0.04
-0.038
-0.037
-0.036
-0.034
-0.031
-0.03
-0.03
-0.029
-0.028
-0.029
-0.03
-0.028
-0.025
-0.021
-0.013
-0.004
0.005
0.013
0.022
0.028
0.032
0.036
0.039
0.039
0.037
0.035
0.031
0.024
0.017
0.011
0.003
-0.005
-0.012
-0.018
-0.022
-0.026
-0.029
-0.03
-0.031
-0.032
-0.032
-0.032
-0.032
-0.031
-0.03
-0.03
-0.03
-0.029
-0.028
-0.027
-0.027
-0.026
-0.026
-0.028
-0.032
-0.033
-0.023
-0.002
0.032
0.08
0.138
0.195
0.251
0.307
0.361
0.401
0.417
0.409
0.376
0.32
0.252
0.183
0.115
0.047
-0.016
-0.063
-0.092
-0.104
-0.098
-0.084
-0.072
-0.064
-0.059
-0.058
-0.057
-0.056
-0.056
-0.056
-0.056
-0.056
-0.055
-0.055
-0.054
-0.053
-0.051
-0.05
-0.049
-0.047
-0.042
-0.036
-0.028
-0.019
-0.009
-0.001
0.008
0.016
0.024
0.033
0.043
0.053
0.064
0.073
0.08
0.085
0.089
0.091
0.092
0.093
0.093
0.094
0.094
0.093
0.091
0.089
0.087
0.083
0.08
0.076
0.065
0.056
0.047
0.038
0.027
0.021
0.011
0.002
-0.007
-0.016
-0.023
-0.031
-0.041
-0.05
-0.058
-0.064
-0.068
-0.069
-0.068
-0.067
-0.067
-0.066
-0.064
-0.063
-0.063
-0.062
-0.061
-0.06
-0.061
-0.061
-0.06
-0.061
-0.061
-0.06
-0.059
-0.059
-0.058
-0.057
-0.057
-0.056
-0.057
-0.056
-0.056
-0.054
-0.052
-0.051
-0.05
-0.05
-0.049
-0.051
-0.052
-0.052
-0.051
-0.052
-0.051
-0.05
-0.05
-0.05
-0.05
-0.05
-0.049
-0.049
-0.049
-0.048
-0.047
-0.048
-0.048
-0.047
-0.047
-0.047
-0.046
-0.044
-0.04
-0.034
-0.026
-0.017
-0.008
-0.001
0.006
0.012
0.016
0.019
0.021
0.022
0.021
0.019
0.016
0.01
0.003
-0.005
-0.013
-0.023
-0.031
-0.037
-0.041
-0.044
-0.046
-0.045
-0.044
-0.044
-0.044
-0.044
-0.043
-0.044
-0.044
-0.044
-0.043
-0.043
-0.042
-0.042
-0.042
-0.041
-0.04
-0.041
-0.046
-0.048
-0.04
-0.02
0.013
0.061
0.119
0.176
0.232
0.289
0.331
0.374
0.392
0.386
0.354
0.312
0.244
0.176
0.109
0.041
-0.022
-0.069
-0.099
-0.112
-0.108
-0.094
-0.083
-0.076
-0.073
-0.072
-0.071
-0.07
-0.069
-0.068
-0.068
-0.067
-0.067
-0.067
-0.066
-0.065
-0.065
-0.065
-0.064
-0.062
-0.056
-0.048
-0.04
-0.03
-0.02
-0.012
-0.005
0.004
0.014
0.024
0.034
0.045
0.055
0.063
0.069
0.074
0.077
0.079
0.082
0.083
0.084
0.085
0.086
0.085
0.083
0.081
0.079
0.075
0.071
0.066
0.059
0.053
0.045
0.037
0.026
0.018
0.007
-0.004
-0.013
-0.022
-0.029
-0.038
-0.047
-0.056
-0.063
-0.069
-0.072
-0.074
-0.073
-0.073
-0.071
-0.07
-0.07
-0.069
-0.069
-0.068
-0.067
-0.067
-0.067
-0.066
-0.065
-0.064
-0.063
-0.061
-0.058
-0.057
-0.057
-0.056
-0.055
-0.055
-0.056
-0.056
-0.056
-0.056
-0.055
-0.054
-0.053
-0.053
-0.052
-0.052
-0.052
-0.052
-0.052
-0.051
-0.052
-0.051
-0.05
-0.049
-0.049
-0.049
-0.047
-0.047
-0.047
-0.047
-0.045
-0.044
-0.043
-0.041
-0.041
-0.04
-0.04
-0.037
-0.033
-0.027
-0.019
-0.01
-0.002
0.007
0.014
0.021
0.027
0.03
0.032
0.031
0.03
0.027
0.024
0.019
0.013
0.006
-0.001
-0.009
-0.018
-0.025
-0.031
-0.036
-0.039
-0.04
-0.04
-0.039
-0.039
-0.039
-0.039
-0.038
-0.038
-0.037
-0.037
-0.037
-0.036
-0.035
-0.035
-0.035
-0.034
-0.036
-0.04
-0.043
-0.035
-0.014
0.019
0.067
0.124
0.183
0.24
0.296
0.35
0.393
0.411
0.405
0.375
0.32
0.253
0.185
0.118
0.051
-0.012
-0.06
-0.091
-0.104
-0.101
-0.087
-0.074
-0.067
-0.062
-0.061
-0.061
-0.061
-0.061
-0.06
-0.06
-0.059
-0.057
-0.055
-0.054
-0.054
-0.053
-0.053
-0.053
-0.049
-0.041
-0.034
-0.026
-0.016
-0.006
-0
0.009
0.018
0.031
0.041
0.051
0.061
0.071
0.074
0.081
0.088
0.091
0.094
0.096
0.098
0.098
0.1
0.101
0.1
0.098
0.095
0.091
0.087
0.083
0.078
0.073
0.067
0.059
0.049
0.039
0.029
0.02
0.011
0.004
-0.004
-0.013
-0.022
-0.031
-0.041
-0.049
-0.055
-0.058
-0.06
-0.059
-0.058
-0.058
-0.058
-0.058
-0.058
-0.058
-0.058
-0.056
-0.056
-0.056
-0.055
-0.053
-0.053
-0.053
-0.052
-0.051
-0.051
-0.051
-0.049
-0.048
-0.047
-0.047
-0.046
-0.047
-0.047
-0.047
-0.047
-0.048
-0.048
-0.046
-0.045
-0.044
-0.043
-0.041
-0.041
-0.041
-0.041
-0.04
-0.04
-0.04
-0.04
-0.039
-0.038
-0.038
-0.037
-0.036
-0.035
-0.035
-0.035
-0.034
-0.034
-0.033
-0.032
-0.027
-0.022
-0.015
-0.007
0.002
0.011
0.018
0.025
0.029
0.031
0.032
0.032
0.031
0.029
0.027
0.022
0.016
0.009
0.001
-0.007
-0.015
-0.022
-0.026
-0.031
-0.034
-0.035
-0.035
-0.036
-0.036
-0.035
-0.035
-0.035
-0.035
-0.034
-0.034
-0.034
-0.034
-0.034
-0.034
-0.034
-0.033
-0.033
-0.037
-0.04
-0.011
0.007
0.038
0.084
0.141
0.175
0.231
0.287
0.343
0.388
0.409
0.406
0.353
0.299
0.231
0.164
0.096
0.055
-0.01
-0.06
-0.093
-0.108
-0.106
-0.093
-0.08
-0.072
-0.067
-0.064
-0.063
-0.062
-0.061
-0.061
-0.062
-0.062
-0.062
-0.062
-0.062
-0.062
-0.061
-0.06
-0.058
-0.055
-0.05
-0.043
-0.035
-0.026
-0.017
-0.009
-0.001
0.007
0.016
0.026
0.035
0.045
0.055
0.062
0.068
0.074
0.078
0.081
0.084
0.085
0.085
0.085
0.085
0.085
0.084
0.082
0.08
0.076
0.073
0.068
0.063
0.056
0.047
0.037
0.023
0.012
0.002
-0.007
-0.02
-0.025
-0.033
-0.041
-0.05
-0.054
-0.061
-0.067
-0.071
-0.073
-0.073
-0.072
-0.071
-0.071
-0.071
-0.071
-0.071
-0.071
-0.07
-0.07
-0.07
-0.07
-0.07
-0.069
-0.068
-0.066
-0.066
-0.065
-0.065
-0.065
-0.065
-0.063
-0.062
-0.06
-0.059
-0.058
-0.057
-0.057
-0.057
-0.057
-0.057
-0.056
-0.056
-0.056
-0.057
-0.057
-0.058
-0.058
-0.057
-0.055
-0.055
-0.053
-0.051
-0.051
-0.051
-0.05
-0.05
-0.05
-0.05
-0.049
-0.049
-0.049
-0.048
-0.045
-0.04
-0.035
-0.028
-0.019
-0.011
-0.003
0.004
0.011
0.015
0.019
0.022
0.022
0.021
0.02
0.017
0.012
0.006
-0.001
-0.008
-0.017
-0.025
-0.031
-0.035
-0.039
-0.042
-0.043
-0.044
-0.045
-0.045
-0.044
-0.043
-0.042
-0.041
-0.04
-0.04
-0.04
-0.04
-0.04
-0.039
-0.037
-0.035
-0.035
-0.039
-0.043
-0.015
0.002
0.032
0.076
0.133
0.166
0.223
0.28
0.335
0.381
0.404
0.402
0.376
0.324
0.257
0.189
0.121
0.053
-0.011
-0.059
-0.091
-0.107
-0.106
-0.093
-0.082
-0.074
-0.069
-0.068
-0.066
-0.066
-0.065
-0.064
-0.065
-0.065
-0.064
-0.063
-0.062
-0.061
-0.059
-0.059
-0.058
-0.055
-0.05
-0.043
-0.035
-0.025
-0.013
-0.004
0.004
0.013
0.021
0.027
