0.198
0.255
0.31
0.363
0.395
0.404
0.387
0.346
0.283
0.215
0.147
0.079
0.012
-0.046
-0.086
-0.108
-0.113
-0.103
-0.089
-0.079
-0.073
-0.071
-0.071
-0.071
-0.07
-0.069
-0.068
-0.067
-0.066
-0.065
-0.065
-0.066
-0.065
-0.065
-0.065
-0.062
-0.057
-0.051
-0.044
-0.035
-0.025
-0.017
-0.008
0.001
0.009
0.018
0.027
0.037
0.046
0.056
0.064
0.07
0.075
0.078
0.081
0.083
0.084
0.085
0.085
0.085
0.083
0.082
0.08
0.076
0.072
0.068
0.064
0.058
0.05
0.042
0.032
0.021
0.01
-0
-0.01
-0.02
-0.027
-0.035
-0.042
-0.05
-0.058
-0.065
-0.071
-0.074
-0.074
-0.073
-0.072
-0.072
-0.071
-0.071
-0.07
-0.069
-0.067
-0.066
-0.065
-0.065
-0.064
-0.064
-0.063
-0.062
-0.06
-0.06
-0.06
-0.059
-0.058
-0.057
-0.057
-0.056
-0.056
-0.056
-0.055
-0.053
-0.052
-0.051
-0.051
-0.052
-0.053
-0.053
-0.053
-0.052
-0.052
-0.052
-0.051
-0.05
-0.05
-0.049
-0.048
-0.047
-0.047
-0.047
-0.046
-0.046
-0.045
-0.044
-0.042
-0.041
-0.04
-0.038
-0.036
-0.032
-0.025
-0.017
-0.009
0.001
0.01
0.017
0.023
0.028
0.03
0.031
0.03
0.03
0.028
0.025
0.02
0.014
0.005
-0.005
-0.014
-0.02
-0.026
-0.029
-0.031
-0.031
-0.032
-0.032
-0.032
-0.032
-0.033
-0.033
-0.033
-0.033
-0.033
-0.033
-0.032
-0.03
-0.029
-0.027
-0.026
-0.025
-0.028
-0.033
-0.032
-0.021
0.002
0.041
0.094
0.153
0.211
0.268
0.328
0.38
0.413
0.424
0.408
0.363
0.301
0.233
0.135
0.068
0.001
-0.057
-0.098
-0.093
-0.1
-0.09
-0.078
-0.068
-0.061
-0.058
-0.057
-0.055
-0.054
-0.054
-0.053
-0.053
-0.053
-0.052
-0.052
-0.051
-0.05
-0.049
-0.048
-0.046
-0.042
-0.038
-0.031
-0.022
-0.013
-0.005
0.004
0.012
0.021
0.031
0.041
0.052
0.063
0.072
0.08
0.086
0.09
0.092
0.095
0.097
0.097
0.098
0.097
0.096
0.094
0.094
0.092
0.09
0.086
0.082
0.071
0.065
0.058
0.05
0.04
0.035
0.025
0.016
0.006
-0.003
-0.01
-0.018
-0.027
-0.036
-0.044
-0.051
-0.056
-0.059
-0.058
-0.058
-0.057
-0.056
-0.054
-0.054
-0.054
-0.054
-0.054
-0.054
-0.054
-0.054
-0.053
-0.052
-0.052
-0.052
-0.051
-0.05
-0.049
-0.047
-0.047
-0.047
-0.047
-0.047
-0.048
-0.047
-0.045
-0.044
-0.043
-0.043
-0.042
-0.042
-0.042
-0.042
-0.041
-0.04
-0.04
-0.039
-0.037
-0.037
-0.036
-0.035
-0.035
-0.035
-0.035
-0.035
-0.034
-0.035
-0.035
-0.034
-0.034
-0.034
-0.034
-0.033
-0.031
-0.027
-0.02
-0.011
-0.002
0.006
0.014
0.021
0.026
0.03
0.034
0.036
0.036
0.035
0.033
0.029
0.023
0.016
0.009
-0
-0.009
-0.018
-0.025
-0.03
-0.033
-0.033
-0.033
-0.033
-0.033
-0.034
-0.034
-0.034
-0.033
-0.034
-0.033
-0.033
-0.033
-0.033
-0.033
-0.032
-0.031
-0.032
-0.034
-0.039
-0.039
-0.028
-0.005
0.033
0.086
0.144
0.202
0.259
0.317
0.37
0.405
0.415
0.4
0.359
0.297
0.229
0.162
0.094
0.026
-0.032
-0.073
-0.098
-0.106
-0.097
-0.085
-0.075
-0.068
-0.065
-0.065
-0.065
-0.064
-0.064
-0.063
-0.062
-0.061
-0.061
-0.061
-0.06
-0.059
-0.059
-0.058
-0.057
-0.049
-0.044
-0.038
-0.029
-0.019
-0.015
-0.006
0.002
0.01
0.019
0.028
0.038
0.048
0.057
0.066
0.073
0.078
0.082
0.085
0.086
0.087
0.088
0.088
0.087
0.085
0.081
0.078
0.076
0.073
0.07
0.064
0.058
0.05
0.042
0.033
0.024
0.014
0.004
-0.006
-0.014
-0.023
-0.032
-0.042
-0.051
-0.059
-0.066
-0.07
-0.073
-0.074
-0.074
-0.074
-0.073
-0.072
-0.072
-0.072
-0.071
-0.069
-0.068
-0.067
-0.066
-0.065
-0.065
-0.065
-0.064
-0.062
-0.061
-0.061
-0.059
-0.058
-0.058
-0.058
-0.057
-0.057
-0.058
-0.058
-0.057
-0.056
-0.056
-0.055
-0.054
-0.054
-0.054
-0.053
-0.053
-0.054
-0.054
-0.053
-0.053
-0.053
-0.053
-0.053
-0.053
-0.054
-0.053
-0.052
-0.051
-0.05
-0.049
-0.049
-0.048
-0.048
-0.047
-0.044
-0.039
-0.032
-0.025
-0.016
-0.008
0.001
0.008
0.013
0.018
0.021
0.022
0.021
0.02
0.019
0.015
0.009
0.003
-0.004
-0.012
-0.02
-0.028
-0.034
-0.039
-0.042
-0.044
-0.045
-0.046
-0.046
-0.045
-0.045
-0.043
-0.043
-0.043
-0.044
-0.044
-0.044
-0.044
-0.043
-0.043
-0.042
-0.041
-0.043
-0.047
-0.047
-0.036
-0.013
0.024
0.075
0.133
0.19
0.246
0.303
0.355
0.392
0.404
0.392
0.353
0.293
0.225
0.157
0.09
0.023
-0.036
-0.08
-0.106
-0.115
-0.108
-0.095
-0.084
-0.077
-0.074
-0.073
-0.072
-0.07
-0.069
-0.068
-0.067
-0.065
-0.065
-0.065
-0.063
-0.062
-0.062
-0.061
-0.06
-0.054
-0.049
-0.042
-0.033
-0.023
-0.016
-0.007
0.002
0.011
0.021
0.03
0.039
0.049
0.058
0.067
0.075
0.08
0.084
0.087
0.09
0.092
0.093
0.094
0.093
0.092
0.09
0.088
0.085
0.082
0.078
0.075
0.068
0.06
0.051
0.041
0.029
0.018
0.008
-0
-0.009
-0.017
-0.024
-0.033
-0.041
-0.05
-0.056
-0.062
-0.065
-0.066
-0.066
-0.066
-0.065
-0.064
-0.063
-0.062
-0.061
-0.06
-0.06
-0.06
-0.06
-0.059
-0.058
-0.057
-0.056
-0.055
-0.055
-0.055
-0.053
-0.052
-0.05
-0.05
-0.048
-0.048
-0.048
-0.047
-0.047
-0.045
-0.044
-0.043
-0.041
-0.041
-0.041
-0.04
-0.039
-0.04
-0.04
-0.039
-0.038
-0.038
-0.038
-0.036
-0.036
-0.037
-0.037
-0.036
-0.035
-0.035
-0.034
-0.033
-0.033
-0.033
-0.033
-0.03
-0.026
-0.02
-0.012
-0.003
0.005
0.013
0.02
0.026
0.032
0.036
0.037
0.037
0.036
0.034
0.03
0.025
0.019
0.012
0.005
-0.004
-0.011
-0.018
-0.023
-0.027
-0.029
-0.029
-0.029
-0.029
-0.029
-0.029
-0.03
-0.03
-0.03
-0.03
-0.03
-0.029
-0.028
-0.028
-0.027
-0.026
-0.026
-0.027
-0.031
-0.03
-0.019
0.004
0.04
0.091
0.149
0.206
0.262
0.319
0.371
0.408
0.422
0.386
0.348
0.289
0.221
0.152
0.11
0.041
-0.019
-0.062
-0.088
-0.097
-0.089
-0.075
-0.065
-0.057
-0.053
-0.051
-0.05
-0.05
-0.05
-0.051
-0.051
-0.049
-0.048
-0.048
-0.049
-0.049
-0.051
-0.052
-0.051
-0.047
-0.042
-0.035
-0.024
-0.013
-0.003
0.006
0.016
0.024
0.034
0.043
0.053
0.063
0.072
0.08
0.085
0.09
0.094
0.097
0.1
0.101
0.103
0.104
0.104
0.102
0.1
0.096
0.093
0.089
0.085
0.081
0.076
0.069
0.06
0.047
0.035
0.024
0.013
0.004
-0.001
-0.01
-0.018
-0.027
-0.037
-0.045
-0.052
-0.057
-0.061
-0.061
-0.061
-0.06
-0.06
-0.059
-0.059
-0.059
-0.058
-0.057
-0.057
-0.056
-0.055
-0.055
-0.054
-0.055
-0.055
-0.055
-0.054
-0.054
-0.052
-0.05
-0.05
-0.05
-0.049
-0.05
-0.051
-0.05
-0.049
-0.048
-0.048
-0.047
-0.047
-0.047
-0.046
-0.045
-0.044
-0.044
-0.043
-0.043
-0.043
-0.043
-0.043
-0.043
-0.043
-0.042
-0.042
-0.041
-0.041
-0.041
-0.04
-0.039
-0.039
-0.04
-0.04
-0.037
-0.033
-0.027
-0.018
-0.009
-0
0.007
0.014
0.02
0.025
0.029
0.03
0.03
0.028
0.025
0.02
0.013
0.007
-0.001
-0.009
-0.019
-0.027
-0.034
-0.039
-0.042
-0.043
-0.044
-0.045
-0.045
-0.045
-0.045
-0.042
-0.042
-0.041
-0.04
-0.04
-0.04
-0.039
-0.038
-0.039
-0.039
-0.038
-0.041
-0.046
-0.047
-0.037
-0.015
0.021
0.071
0.13
0.188
0.245
0.301
0.355
0.393
0.406
0.396
0.36
0.302
0.234
0.139
0.071
0.005
-0.055
-0.1
-0.1
-0.11
-0.104
-0.091
-0.08
-0.073
-0.069
-0.068
-0.068
-0.067
-0.067
-0.066
-0.066
-0.065
-0.064
-0.063
-0.062
-0.061
-0.061
-0.06
-0.059
-0.056
-0.051
-0.044
-0.036
-0.024
-0.017
-0.009
-0.001
0.007
0.013
0.022
0.032
0.042
0.052
0.06
0.066
0.071
0.075
0.077
0.079
0.081
0.083
0.084
0.084
0.083
0.081
0.077
0.074
0.071
0.068
0.063
0.059
0.053
0.045
0.036
0.026
0.016
0.005
-0.004
-0.014
-0.023
-0.031
-0.039
-0.048
-0.057
-0.063
-0.068
-0.071
-0.071
-0.07
-0.07
-0.07
-0.07
-0.071
-0.071
-0.069
-0.068
-0.067
-0.066
-0.065
-0.064
-0.063
-0.063
-0.063
-0.062
-0.062
-0.062
-0.062
-0.061
-0.061
-0.061
-0.061
-0.06
-0.059
-0.058
-0.057
-0.056
-0.055
-0.054
-0.053
-0.053
-0.053
-0.052
-0.052
-0.053
-0.053
-0.052
-0.052
-0.051
-0.05
-0.048
-0.048
-0.048
-0.048
-0.048
-0.048
-0.049
-0.049
-0.047
-0.046
-0.045
-0.043
-0.04
-0.037
-0.031
-0.024
-0.015
-0.006
0.002
0.009
0.015
0.019
0.022
0.023
0.023
0.023
0.021
0.018
0.013
0.007
-0
-0.008
-0.017
-0.025
-0.032
-0.037
-0.041
-0.042
-0.04
-0.039
-0.038
-0.037
-0.036
-0.038
-0.038
-0.039
-0.039
-0.038
-0.037
-0.037
-0.036
-0.036
-0.036
-0.035
-0.037
-0.042
-0.043
-0.031
-0.008
0.029
0.083
0.141
0.198
0.255
0.312
0.365
0.4
0.411
0.398
0.359
0.298
0.23
0.163
0.096
0.028
-0.031
-0.073
-0.099
-0.107
-0.098
-0.084
-0.074
-0.067
-0.064
-0.064
-0.064
-0.064
-0.063
-0.063
-0.062
-0.06
-0.06
-0.059
-0.057
-0.055
-0.055
-0.054
-0.053
-0.049
-0.045
-0.038
-0.028
-0.015
-0.006
0.003
0.013
0.024
0.029
0.039
0.049
0.058
0.064
0.073
0.08
0.085
0.088
0.092
0.093
0.094
0.094
0.094
0.093
0.092
0.09
0.088
0.087
0.084
0.081
0.077
0.072
0.065
0.055
0.045
0.034
0.023
0.013
0.005
-0.003
-0.011
-0.019
-0.028
-0.038
-0.046
-0.053
-0.059
-0.063
-0.064
-0.064
-0.064
-0.062
-0.061
-0.06
-0.059
-0.059
-0.058
-0.058
-0.058
-0.057
-0.056
-0.055
-0.055
-0.054
-0.052
-0.052
-0.051
-0.05
-0.051
-0.051
-0.051
-0.05
-0.049
-0.048
-0.047
-0.047
-0.047
-0.047
-0.046
-0.045
-0.045
-0.044
-0.043
-0.043
-0.043
-0.042
-0.04
-0.039
-0.039
-0.038
-0.037
-0.038
-0.037
-0.037
-0.036
-0.036
-0.036
-0.037
-0.037
-0.037
-0.036
-0.035
-0.032
-0.028
-0.022
-0.014
-0.004
0.006
0.014
0.021
0.026
0.03
0.033
0.035
0.036
0.036
0.035
0.031
0.026
0.021
0.014
0.007
-0.002
-0.011
-0.018
-0.023
-0.027
-0.029
-0.028
-0.028
-0.028
-0.028
-0.028
-0.029
-0.03
-0.03
-0.029
-0.029
-0.029
-0.028
-0.028
-0.029
-0.029
-0.029
-0.031
-0.036
-0.038
-0.028
-0.007
0.027
0.077
0.135
0.193
0.25
0.307
0.36
0.4
0.416
0.408
0.375
0.317
0.249
0.155
0.087
0.02
-0.041
-0.087
-0.089
-0.101
-0.097
-0.084
-0.072
-0.064
-0.06
-0.059
-0.058
-0.057
-0.057
-0.057
-0.057
-0.057
-0.057
-0.057
-0.056
-0.055
-0.055
-0.054
-0.053
-0.049
-0.043
-0.037
-0.028
-0.018
-0.009
-0.001
0.008
0.022
0.03
0.039
0.049
0.06
0.063
0.072
0.079
0.084
0.087
0.089
0.091
0.092
0.093
0.094
0.093
0.092
0.09
0.088
0.086
0.084
0.08
0.076
0.07
0.062
0.052
0.043
0.032
0.021
0.01
-0.001
-0.011
-0.019
-0.027
-0.035
-0.043
-0.052
-0.06
-0.066
-0.069
-0.07
-0.069
-0.068
-0.068
-0.067
-0.066
-0.065
-0.063
-0.062
-0.061
-0.061
-0.062
-0.062
-0.062
-0.063
-0.063
-0.062
-0.061
-0.06
-0.06
-0.059
-0.059
-0.059
-0.058
-0.057
-0.058
-0.058
-0.057
-0.056
-0.056
-0.056
-0.056
-0.056
-0.055
-0.055
-0.054
-0.054
-0.053
-0.052
-0.052
-0.051
-0.051
-0.051
-0.05
-0.05
-0.049
-0.048
-0.046
-0.045
-0.044
-0.043
-0.043
-0.044
-0.044
-0.041
-0.037
-0.032
-0.024
-0.015
-0.008
-0
0.007
0.013
0.017
0.019
0.02
0.02
0.019
0.017
0.014
0.009
0.002
-0.005
-0.014
-0.023
-0.032
-0.038
-0.043
-0.047
-0.049
-0.047
-0.047
-0.047
-0.046
-0.046
-0.046
-0.046
-0.045
-0.045
-0.044
-0.044
-0.043
-0.043
-0.042
-0.042
-0.041
-0.044
-0.048
-0.05
-0.042
-0.021
0.013
0.062
0.12
0.177
0.233
0.289
0.343
0.385
0.403
0.397
0.365
0.309
0.241
0.146
0.079
0.011
-0.051
-0.099
-0.1
-0.112
-0.107
-0.093
-0.081
-0.073
-0.07
-0.068
-0.068
-0.067
-0.066
-0.065
-0.066
-0.065
-0.065
-0.065
-0.065
-0.064
-0.064
-0.064
-0.063
-0.06
-0.055
-0.048
-0.039
-0.029
-0.02
-0.011
-0.002
0.008
0.016
0.026
0.036
0.046
0.055
0.064
0.071
0.076
0.08
0.083
0.085
0.086
0.086
0.087
0.087
0.086
0.084
0.082
0.078
0.075
0.072
0.068
0.063
0.056
0.048
0.038
0.027
0.016
0.005
-0.009
-0.018
-0.027
-0.035
-0.043
-0.046
-0.055
-0.061
-0.066
-0.069
-0.07
-0.07
-0.07
-0.07
-0.07
-0.07
-0.07
-0.069
-0.067
-0.066
-0.066
-0.065
-0.064
-0.063
-0.061
-0.06
-0.059
-0.059
-0.06
-0.06
-0.06
-0.059
-0.058
-0.057
-0.056
-0.056
-0.056
-0.055
-0.053
-0.053
-0.052
-0.051
-0.051
-0.051
-0.05
-0.05
-0.049
-0.048
-0.048
-0.047
-0.046
-0.046
-0.045
-0.044
-0.044
-0.044
-0.043
-0.044
-0.044
-0.043
-0.042
-0.042
-0.041
-0.04
-0.034
-0.029
-0.024
-0.015
-0.006
-0.002
0.006
0.014
0.019
0.024
0.028
0.03
0.031
0.03
0.029
0.025
0.019
0.013
0.005
-0.004
-0.012
-0.019
-0.024
-0.028
-0.031
-0.032
-0.033
-0.033
-0.033
-0.033
-0.032
-0.032
-0.032
-0.031
-0.03
-0.031
-0.031
-0.031
-0.031
-0.031
-0.03
-0.029
-0.03
-0.035
-0.037
-0.027
-0.007
0.027
0.076
0.134
0.191
0.248
0.304
0.358
0.398
0.415
0.407
0.373
0.316
0.248
0.179
0.111
0.043
-0.018
-0.064
-0.092
-0.102
-0.095
-0.08
-0.067
-0.059
-0.056
-0.055
-0.055
-0.055
-0.055
-0.055
-0.055
-0.054
-0.053
-0.053
-0.052
-0.05
-0.05
-0.05
-0.049
-0.045
-0.04
-0.033
-0.024
-0.014
-0.005
0.003
0.012
0.026
0.036
0.046
0.056
0.066
0.069
0.078
0.085
0.09
0.094
0.097
0.099
0.1
0.101
0.102
0.101
0.1
0.098
0.095
0.092
0.089
0.084
0.08
0.074
0.067
0.06
0.05
0.04
0.028
0.018
0.006
-0.003
-0.01
-0.018
-0.025
-0.032
-0.041
-0.047
-0.052
-0.056
-0.057
-0.057
-0.057
-0.058
-0.057
-0.056
-0.056
-0.056
-0.055
-0.055
-0.056
-0.055
-0.054
-0.053
-0.053
-0.051
-0.05
-0.05
-0.05
-0.049
-0.048
-0.047
-0.046
-0.045
-0.043
-0.043
-0.043
-0.044
-0.045
-0.045
-0.044
-0.043
-0.043
-0.042
-0.042
-0.042
-0.042
-0.042
-0.041
-0.041
-0.04
-0.04
-0.039
-0.039
-0.039
-0.039
-0.038
-0.038
-0.039
-0.039
-0.039
-0.039
-0.038
-0.037
-0.033
-0.029
-0.023
-0.016
-0.007
0.001
0.008
0.015
0.022
0.027
0.031
0.033
0.033
0.032
0.03
0.026
0.021
0.015
0.008
-0.001
-0.01
-0.018
-0.025
-0.03
-0.034
-0.035
-0.036
-0.037
-0.037
-0.037
-0.036
-0.036
-0.035
-0.035
-0.035
-0.035
-0.035
-0.035
-0.034
-0.034
-0.032
-0.031
-0.032
-0.037
-0.04
-0.034
-0.016
0.016
0.063
0.12
0.178
0.235
0.292
0.348
0.393
0.413
0.409
0.379
0.323
0.255
0.187
0.121
0.054
-0.009
-0.051
-0.083
-0.098
-0.096
-0.082
-0.077
-0.069
-0.064
-0.063
-0.063
-0.063
-0.062
-0.062
-0.062
-0.061
-0.06
-0.059
-0.059
-0.056
-0.055
-0.054
-0.053
-0.05
-0.047
-0.042
-0.034
-0.024
-0.015
-0.007
0.001
0.012
0.021
0.03
0.041
0.051
0.058
0.066
0.073
0.078
0.082
0.084
0.087
0.088
0.088
0.089
0.09
0.088
0.086
0.084
0.081
0.077
0.073
0.069
0.064
0.057
0.049
0.04
0.029
0.018
0.009
0
-0.01
-0.018
-0.026
-0.035
-0.044
-0.053
-0.061
-0.068
-0.072
-0.075
-0.075
-0.075
-0.075
-0.075
-0.074
-0.074
-0.074
-0.072
-0.072
-0.072
-0.071
-0.07
-0.07
-0.07
-0.068
-0.067
-0.065
-0.064
-0.063
-0.063
-0.063
-0.062
-0.062
-0.06
-0.059
-0.057
-0.056
-0.055
-0.056
-0.056
-0.057
-0.058
-0.058
-0.058
-0.057
-0.056
-0.056
-0.054
-0.053
-0.053
-0.053
-0.052
-0.052
-0.053
-0.052
-0.05
-0.049
-0.049
-0.049
-0.048
-0.048
-0.049
-0.049
-0.042
-0.039
-0.033
-0.025
-0.016
-0.012
-0.003
0.005
0.01
0.015
0.019
0.021
0.021
0.019
0.018
0.014
0.008
0.002
-0.005
-0.013
-0.022
-0.03
-0.036
-0.042
-0.046
-0.047
-0.048
-0.048
-0.047
-0.046
-0.044
-0.044
-0.044
-0.045
-0.043
-0.043
-0.043
-0.041
-0.039
-0.039
-0.039
-0.039
-0.04
-0.045
-0.049
-0.043
-0.024
0.007
0.054
0.111
0.17
0.227
0.284
0.339
0.383
0.404
0.402
0.373
0.321
0.254
0.186
0.117
0.05
-0.014
-0.055
-0.087
-0.102
-0.099
-0.085
-0.082
-0.074
-0.069
-0.068
-0.068
-0.066
-0.064
-0.063
-0.062
-0.061
-0.06
-0.061
-0.061
-0.06
-0.06
-0.06
-0.059
-0.057
-0.053
-0.048
-0.039
-0.029
-0.018
-0.008
0
0.01
0.018
0.027
0.037
0.047
0.056
0.065
0.073
0.08
0.084
0.087
0.089
0.09
0.09
0.091
0.091
0.09
0.089
0.087
0.085
0.081
0.078
0.075
0.069
0.063
0.054
0.045
0.034
0.023
0.013
0.004
-0.005
-0.014
-0.021
-0.034
-0.041
-0.049
-0.056
-0.062
-0.061
-0.064
-0.065
-0.065
-0.064
-0.062
-0.06
-0.059
-0.058
-0.057
-0.056
-0.057
-0.057
-0.057
-0.056
-0.056
-0.055
-0.055
-0.054
-0.054
-0.054
-0.052
-0.051
-0.051
-0.05
-0.05
-0.05
-0.049
-0.048
-0.047
-0.045
-0.045
-0.045
-0.044
-0.043
-0.042
-0.041
-0.041
-0.041
-0.041
-0.04
-0.04
-0.039
-0.038
-0.038
-0.038
-0.038
-0.038
-0.037
-0.036
-0.035
-0.035
-0.034
-0.034
-0.033
-0.031
-0.027
-0.022
-0.014
-0.005
0.002
0.01
0.018
0.025
0.03
0.034
0.036
0.037
0.035
0.033
0.029
0.024
0.018
0.012
0.003
-0.006
-0.014
-0.02
-0.026
-0.029
-0.03
-0.03
-0.03
-0.03
-0.029
-0.028
-0.028
-0.027
-0.026
-0.028
-0.028
-0.028
-0.028
-0.028
-0.026
-0.026
-0.026
-0.028
-0.033
-0.035
-0.026
-0.006
0.028
0.076
0.134
0.192
0.248
0.304
0.359
0.403
0.422
0.417
0.386
0.332
0.263
0.195
0.128
0.06
-0.004
-0.047
-0.078
-0.093
-0.089
-0.074
-0.068
-0.059
-0.054
-0.053
-0.053
-0.052
-0.052
-0.051
-0.051
-0.05
-0.049
-0.049
-0.049
-0.049
-0.049
-0.049
-0.048
-0.046
-0.041
-0.035
-0.026
-0.017
-0.008
0.001
0.009
0.018
0.027
0.036
0.046
0.06
0.071
0.079
0.087
0.092
0.091
0.093
0.096
0.097
0.097
0.097
0.097
0.095
0.093
0.092
0.089
0.086
0.083
0.081
0.075
0.068
0.061
0.051
0.04
0.029
0.02
0.011
0.001
-0.008
-0.017
-0.029
-0.038
-0.047
-0.054
-0.059
-0.06
-0.063
-0.063
-0.063
-0.062
-0.062
-0.061
-0.06
-0.06
-0.058
-0.057
-0.057
-0.057
-0.057
-0.056
-0.056
-0.055
-0.055
-0.055
-0.055
-0.055
-0.054
-0.053
-0.053
-0.052
-0.051
-0.051
-0.052
-0.052
-0.051
-0.051
-0.05
-0.049
-0.048
-0.048
-0.049
-0.049
-0.05
-0.05
-0.05
-0.049
-0.049
-0.049
-0.049
-0.048
-0.048
-0.047
-0.046
-0.045
-0.044
-0.043
-0.042
-0.042
-0.042
-0.042
-0.041
-0.038
-0.033
-0.026
-0.013
-0.004
0.005
0.014
0.022
0.022
0.027
0.029
0.028
0.026
0.024
0.021
0.016
0.01
0.003
-0.005
-0.014
-0.023
-0.03
-0.036
-0.039
-0.042
-0.042
-0.043
-0.043
-0.043
-0.042
-0.042
-0.042
-0.043
-0.042
-0.041
-0.041
-0.039
-0.039
-0.04
-0.04
-0.04
-0.041
-0.044
-0.048
-0.042
-0.025
0.004
0.047
0.103
0.16
0.217
0.274
0.329
0.375
0.4
0.4
0.374
0.324
0.258
0.19
0.122
0.053
-0.011
-0.062
-0.096
-0.113
-0.113
-0.099
-0.087
-0.078
-0.072
-0.07
-0.069
-0.069
-0.068
-0.067
-0.068
-0.067
-0.065
-0.063
-0.061
-0.059
-0.059
-0.059
-0.059
-0.057
-0.054
-0.048
-0.04
-0.031
-0.022
-0.013
-0.005
0.003
0.012
0.022
0.032
0.044
0.055
0.063
0.072
0.078
0.08
0.083
0.085
0.085
0.085
0.086
0.085
0.084
0.083
0.081
0.077
0.074
0.071
0.067
0.061
0.056
0.048
0.039
0.028
0.016
0.006
-0.003
-0.011
-0.02
-0.027
-0.036
-0.045
-0.054
-0.062
-0.068
-0.072
-0.075
-0.076
-0.075
-0.074
-0.074
-0.073
-0.073
-0.074
-0.074
-0.073
-0.072
-0.07
-0.069
-0.068
-0.068
-0.068
-0.067
-0.066
-0.065
-0.064
-0.063
-0.063
-0.062
-0.061
-0.06
-0.059
-0.059
-0.059
-0.059
-0.059
-0.058
-0.057
-0.056
-0.054
-0.054
-0.053
-0.053
-0.051
-0.05
-0.048
-0.048
-0.047
-0.047
-0.047
-0.047
-0.047
-0.047
-0.047
-0.048
-0.048
-0.048
-0.047
-0.046
-0.045
-0.043
-0.039
-0.033
-0.027
-0.015
-0.006
0.002
0.01
0.017
0.02
0.024
0.027
0.029
0.029
0.027
0.023
0.018
0.01
0.003
-0.005
-0.014
-0.022
-0.029
-0.035
-0.04
-0.042
-0.043
-0.044
-0.045
-0.044
-0.043
-0.042
-0.04
-0.039
-0.037
-0.037
-0.037
-0.036
-0.035
-0.035
-0.035
-0.034
-0.034
-0.038
-0.042
-0.037
-0.02
0.008
0.052
0.109
0.167
0.224
0.281
0.336
0.384
0.41
0.411
0.386
0.337
0.271
0.203
0.136
0.069
0.004
-0.048
-0.083
-0.101
-0.102
-0.088
-0.075
-0.067
-0.061
-0.059
-0.061
-0.061
-0.061
-0.061
-0.061
-0.06
-0.059
-0.059
-0.058
-0.058
-0.057
-0.057
-0.056
-0.053
-0.049
-0.043
-0.035
-0.026
-0.016
-0.006
0.003
0.012
0.021
0.031
0.04
0.051
0.061
0.07
0.078
0.084
0.088
0.091
0.094
0.096
0.097
0.098
0.097
0.096
0.093
0.091
0.089
0.086
0.084
0.081
0.076
0.07
0.063
0.054
0.044
0.034
0.024
0.014
0.004
-0.005
-0.015
-0.024
-0.033
-0.042
-0.049
-0.053
-0.058
-0.06
-0.059
-0.059
-0.059
-0.058
-0.056
-0.056
-0.055
-0.055
-0.055
-0.055
-0.055
-0.054
-0.053
-0.053
-0.052
-0.051
-0.051
-0.051
-0.05
-0.048
-0.047
-0.046
-0.045
-0.044
-0.044
-0.043
-0.042
-0.041
-0.041
-0.041
-0.041
-0.042
-0.042
-0.041
-0.04
-0.04
-0.039
-0.037
-0.036
-0.036
-0.036
-0.035
-0.034
-0.034
-0.033
-0.033
-0.033
-0.034
-0.034
-0.034
-0.034
-0.034
-0.033
-0.032
-0.028
-0.022
-0.015
-0.006
0.003
0.012
0.019
0.027
0.032
0.035
0.038
0.038
0.037
0.035
0.032
0.027
0.022
0.016
0.008
-0.001
-0.01
-0.017
-0.023
-0.027
-0.029
-0.03
-0.03
-0.031
-0.031
-0.031
-0.03
-0.031
-0.03
-0.03
-0.03
-0.029
-0.029
-0.028
-0.027
-0.027
-0.028
-0.028
-0.032
-0.037
-0.033
-0.017
0.011
0.053
0.108
0.165
0.223
0.281
0.337
0.386
0.412
0.414
0.39
0.342
0.277
0.209
0.141
0.074
0.008
-0.044
-0.08
-0.099
-0.101
-0.09
-0.077
-0.068
-0.061
-0.059
-0.056
-0.055
-0.055
-0.054
-0.054
-0.053
-0.054
-0.053
-0.054
-0.054
-0.054
-0.054
-0.053
-0.051
-0.048
-0.043
-0.035
-0.026
-0.016
-0.007
0.002
0.01
0.019
0.028
0.037
0.046
0.056
0.065
0.073
0.081
0.085
0.088
0.09
0.092
0.093
0.093
0.093
0.093
0.091
0.09
0.088
0.085
0.081
0.077
0.072
0.065
0.056
0.048
0.038
0.026
0.015
0.005
-0.006
-0.015
-0.023
-0.031
-0.039
-0.048
-0.056
-0.063
-0.069
-0.073
-0.072
-0.072
-0.07
-0.068
-0.067
-0.067
-0.067
-0.067
-0.067
-0.068
-0.068
-0.068
-0.067
-0.067
-0.066
-0.065
-0.064
-0.064
-0.064
-0.063
-0.062
-0.06
-0.059
-0.059
-0.058
-0.059
-0.06
-0.059
-0.059
-0.059
-0.058
-0.057
-0.057
-0.056
-0.055
-0.054
-0.054
-0.054
-0.053
-0.053
-0.052
-0.052
-0.051
-0.051
-0.05
-0.049
-0.049
-0.049
-0.049
-0.048
-0.048
-0.047
-0.046
-0.045
-0.042
-0.037
-0.031
-0.022
-0.013
-0.004
0.003
0.013
0.02
0.024
0.028
0.03
0.027
0.026
0.023
0.017
0.01
0.002
-0.007
-0.016
-0.025
-0.031
-0.036
-0.041
-0.044
-0.045
-0.045
-0.046
-0.046
-0.045
-0.045
-0.046
-0.045
-0.044
-0.044
-0.043
-0.042
-0.039
-0.039
-0.039
-0.038
-0.039
-0.044
-0.05
-0.047
-0.032
-0.005
0.037
0.093
0.151
0.209
0.266
0.324
0.375
0.404
0.408
0.385
0.337
0.271
0.202
0.134
0.067
0.001
-0.053
-0.09
-0.11
-0.113
-0.101
-0.088
-0.077
-0.071
-0.069
-0.068
-0.067
-0.067
-0.066
-0.066
-0.065
-0.064
-0.064
-0.064
-0.063
-0.063
-0.063
-0.062
-0.06
-0.056
-0.05
-0.042
-0.032
-0.023
-0.014
-0.005
0.004
0.013
0.022
0.031
0.041
0.051
0.06
0.067
0.076
0.081
0.085
0.088
0.09
0.089
0.089
0.089
0.087
0.086
0.084
0.081
0.078
0.074
0.072
0.067
0.061
0.053
0.045
0.034
0.024
0.014
0.004
-0.007
-0.016
-0.026
-0.035
-0.045
-0.054
-0.062
-0.067
-0.071
-0.073
-0.073
-0.072
-0.072
-0.071
-0.069
-0.067
-0.064
-0.063
-0.063
-0.063
-0.064
-0.064
-0.063
-0.063
-0.062
-0.06
-0.059
-0.06
-0.06
-0.059
-0.059
-0.059
-0.059
-0.057
-0.057
-0.057
-0.056
-0.055
-0.055
-0.055
-0.055
-0.054
-0.053
-0.053
-0.052
-0.05
-0.05
-0.05
-0.049
-0.048
-0.048
-0.046
-0.045
-0.045
-0.045
-0.045
-0.045
-0.045
-0.045
-0.044
-0.043
-0.043
-0.042
-0.04
-0.036
-0.031
-0.025
-0.016
-0.008
-0
0.008
0.016
0.022
0.027
0.032
0.034
0.034
0.032
0.029
0.024
0.017
0.01
0.003
-0.006
-0.015
-0.022
-0.029
-0.034
-0.037
-0.037
-0.037
-0.037
-0.037
-0.036
-0.036
-0.036
-0.035
-0.033
-0.034
-0.034
-0.033
-0.032
-0.032
-0.032
-0.03
-0.03
-0.033
-0.038
-0.035
-0.02
0.007
0.049
0.104
0.162
0.219
0.275
0.331
0.38
0.409
0.414
0.394
0.349
0.285
0.218
0.151
0.084
0.018
-0.037
-0.075
-0.096
-0.1
-0.089
-0.076
-0.066
-0.06
-0.059
-0.059
-0.058
-0.057
-0.056
-0.054
-0.053
-0.052
-0.05
-0.049
-0.049
-0.047
-0.046
-0.046
-0.044
-0.041
-0.036
-0.029
-0.02
-0.011
-0.002
0.007
0.015
0.023
0.032
0.042
0.052
0.062
0.071
0.08
0.086
0.091
0.095
0.097
0.098
0.099
0.1
0.1
0.099
0.098
0.096
0.093
0.09
0.085
0.082
0.077
0.07
0.063
0.055
0.044
0.033
0.022
0.012
0.003
-0.007
-0.015
-0.024
-0.033
-0.042
-0.05
-0.055
-0.059
-0.062
-0.062
-0.062
-0.062
-0.062
-0.062
-0.062
-0.061
-0.059
-0.057
-0.056
-0.055
-0.054
-0.054
-0.053
-0.053
-0.052
-0.052
-0.052
-0.051
-0.051
-0.05
-0.05
-0.049
-0.047
-0.046
-0.045
-0.044
-0.044
-0.044
-0.044
-0.044
-0.042
-0.041
-0.041
-0.04
-0.04
-0.041
-0.042
-0.042
-0.042
-0.042
-0.041
-0.04
-0.04
-0.039
-0.037
-0.037
-0.036
-0.036
-0.035
-0.035
-0.035
-0.035
-0.034
-0.032
-0.028
-0.021
-0.013
-0.004
0.005
0.012
0.022
0.029
0.033
0.037
0.039
0.035
0.034
0.032
0.028
0.022
0.016
0.007
-0.003
-0.013
-0.021
-0.027
-0.032
-0.035
-0.036
-0.036
-0.036
-0.036
-0.036
-0.036
-0.036
-0.036
-0.034
-0.033
-0.033
-0.032
-0.032
-0.033
-0.033
-0.033
-0.033
-0.035
-0.04
-0.036
-0.021
0.006
0.046
0.1
0.157
0.212
0.268
0.324
0.375
0.407
0.413
0.393
0.349
0.284
0.214
0.146
0.079
0.013
-0.044
-0.083
-0.105
-0.109
-0.099
-0.086
-0.076
-0.07
-0.068
-0.067
-0.067
-0.066
-0.066
-0.065
-0.064
-0.063
-0.061
-0.06
-0.059
-0.059
-0.059
-0.059
-0.058
-0.054
-0.049
-0.042
-0.033
-0.024
-0.015
-0.005
0.004
0.013
0.022
0.031
0.041
0.05
0.058
0.065
0.071
0.076
0.079
0.081
0.084
0.085
0.087
0.087
0.087
0.086
0.083
0.081
0.077
0.074
0.07
0.066
0.058
0.05
0.04
0.029
0.018
0.008
-0
-0.009
-0.018
-0.026
-0.034
-0.043
-0.051
-0.059
-0.065
-0.07
-0.073
-0.074
-0.075
-0.074
-0.073
-0.071
-0.07
-0.068
-0.068
-0.067
-0.068
-0.069
-0.068
-0.066
-0.066
-0.066
-0.065
-0.065
-0.065
-0.064
-0.063
-0.062
-0.062
-0.062
-0.06
-0.06
-0.059
-0.058
-0.058
-0.059
-0.059
-0.059
-0.061
-0.06
-0.059
-0.058
-0.057
-0.055
-0.056
-0.056
-0.056
-0.056
-0.056
-0.055
-0.054
-0.054
-0.053
-0.051
-0.051
-0.052
-0.051
-0.051
-0.052
-0.051
-0.049
-0.046
-0.041
-0.035
-0.026
-0.017
-0.007
0.001
0.009
0.014
0.018
0.021
0.021
0.021
0.019
0.017
0.013
0.008
0.001
-0.007
-0.015
-0.025
-0.033
-0.039
-0.043
-0.046
-0.047
-0.047
-0.047
-0.047
-0.046
-0.046
-0.046
-0.046
-0.045
-0.044
-0.044
-0.043
-0.041
-0.041
-0.041
-0.04
-0.045
-0.047
-0.052
-0.049
-0.034
-0.004
0.036
0.089
0.146
0.202
0.26
0.317
0.369
0.401
0.409
0.39
0.345
0.282
0.213
0.145
0.077
0.01
-0.046
-0.086
-0.108
-0.114
-0.103
-0.09
-0.08
-0.074
-0.071
-0.07
-0.07
-0.068
-0.068
-0.067
-0.065
-0.064
-0.062
-0.062
-0.06
-0.06
-0.059
-0.058
-0.055
-0.052
-0.046
-0.04
-0.031
-0.022
-0.013
-0.003
0.006
0.015
0.023
0.032
0.041
0.05
0.058
0.067
0.075
0.08
0.084
0.086
0.09
0.091
0.091
0.092
0.092
0.088
0.085
0.083
0.081
0.078
0.075
0.072
0.066
0.058
0.049
0.039
0.028
0.017
0.008
-0.003
-0.012
-0.021
-0.029
-0.037
-0.045
-0.052
-0.058
-0.063
-0.065
-0.066
-0.064
-0.063
-0.063
-0.062
-0.061
-0.063
-0.062
-0.06
-0.059
-0.058
-0.057
-0.057
-0.058
-0.059
-0.057
-0.056
-0.054
-0.052
-0.051
-0.051
-0.052
-0.052
-0.052
-0.051
-0.05
-0.048
-0.046
-0.045
-0.045
-0.046
-0.045
-0.046
-0.046
-0.046
-0.044
-0.043
-0.041
-0.04
-0.039
-0.039
-0.039
-0.039
-0.039
-0.039
-0.038
-0.037
-0.036
-0.036
-0.034
-0.034
-0.034
-0.034
-0.032
-0.03
-0.025
-0.018
-0.01
-0.001
0.008
0.016
0.025
0.031
0.035
0.038
0.038
0.036
0.034
0.032
0.028
0.023
0.018
0.011
0.002
-0.007
-0.014
-0.02
-0.025
-0.028
-0.028
-0.028
-0.028
-0.029
-0.029
-0.03
-0.032
-0.032
-0.031
-0.031
-0.03
-0.029
-0.028
-0.027
-0.027
-0.028
-0.033
-0.035
-0.041
-0.038
-0.025
0.005
0.043
0.096
0.154
0.212
0.268
0.324
0.376
0.409
0.418
0.401
0.36
0.298
0.23
0.162
0.094
0.028
-0.03
-0.071
-0.095
-0.1
-0.089
-0.075
-0.065
-0.058
-0.054
-0.053
-0.054
-0.054
-0.054
-0.054
-0.054
-0.053
-0.051
-0.05
-0.049
-0.049
-0.049
-0.05
-0.048
-0.044
-0.038
-0.03
-0.021
-0.012
-0.004
0.005
0.013
0.022
0.031
0.04
0.05
0.061
0.07
0.078
0.085
0.089
0.092
0.093
0.093
0.094
0.095
0.097
0.098
0.098
0.096
0.093
0.09
0.086
0.082
0.077
0.071
0.063
0.054
0.043
0.032
0.022
0.012
0.001
-0.008
-0.017
-0.025
-0.033
-0.042
-0.051
-0.056
-0.06
-0.063
-0.064
-0.063
-0.063
-0.064
-0.063
-0.062
-0.061
-0.06
-0.058
-0.056
-0.056
-0.055
-0.055
-0.055
-0.056
-0.055
-0.054
-0.053
-0.052
-0.051
-0.051
-0.052
-0.051
-0.051
-0.05
-0.049
-0.048
-0.047
-0.047
-0.047
-0.046
-0.046
-0.046
-0.047
-0.047
-0.046
-0.046
-0.046
-0.044
-0.043
-0.043
-0.044
-0.044
-0.044
-0.044
-0.044
-0.043
-0.042
-0.042
-0.041
-0.04
-0.04
-0.04
-0.039
-0.036
-0.032
-0.025
-0.016
-0.008
0
0.008
0.015
0.02
0.024
0.028
0.029
0.029
0.026
0.024
0.019
0.012
0.005
-0.003
-0.011
-0.019
-0.028
-0.033
-0.037
-0.041
-0.042
-0.041
-0.042
-0.043
-0.042
-0.042
-0.043
-0.042
-0.041
-0.041
-0.04
-0.039
-0.039
-0.039
-0.039
-0.039
-0.039
-0.041
-0.046
-0.045
-0.032
-0.007
0.031
0.083
0.14
0.197
0.254
0.311
0.364
0.399
0.408
0.393
0.352
0.29
0.221
0.154
0.086
0.018
-0.04
-0.081
-0.105
-0.111
-0.102
-0.087
-0.078
-0.072
-0.069
-0.068
-0.069
-0.068
-0.067
-0.067
-0.068
-0.067
-0.066
-0.066
-0.065
-0.064
-0.064
-0.064
-0.062
-0.058
-0.053
-0.045
-0.036
-0.028
-0.02
-0.011
-0.003
0.005
0.015
0.026
0.036
0.047
0.056
0.065
0.072
0.077
0.081
0.083
0.087
0.088
0.088
0.088
0.089
0.086
0.084
0.082
0.078
0.074
0.071
0.066
0.059
0.051
0.042
0.032
0.021
0.01
0
-0.009
-0.018
-0.027
-0.036
-0.045
-0.053
-0.061
-0.068
-0.072
-0.075
-0.076
-0.075
-0.074
-0.074
-0.072
-0.071
-0.071
-0.071
-0.07
-0.071
-0.07
-0.069
-0.067
-0.066
-0.064
-0.064
-0.064
-0.064
-0.064
-0.063
-0.062
-0.061
-0.061
-0.06
-0.059
-0.058
-0.056
-0.055
-0.055
-0.054
-0.055
-0.054
-0.054
-0.053
-0.052
-0.053
-0.053
-0.053
-0.053
-0.053
-0.051
-0.05
-0.049
-0.047
-0.046
-0.046
-0.045
-0.045
-0.046
-0.046
-0.046
-0.046
-0.045
-0.044
-0.04
-0.035
-0.028
-0.02
-0.012
-0.004
0.003
0.011
0.017
0.022
0.024
0.026
0.026
0.025
0.022
0.019
0.014
0.008
0.001
-0.006
-0.015
-0.023
-0.029
-0.034
-0.037
-0.038
-0.037
-0.037
-0.038
-0.038
-0.038
-0.038
-0.038
-0.037
-0.037
-0.037
-0.037
-0.036
-0.036
-0.036
-0.035
-0.035
-0.037
-0.042
-0.042
-0.008
0.015
0.052
0.105
0.165
0.201
0.258
0.314
0.367
0.403
0.414
0.4
0.361
0.3
0.231
0.162
0.094
0.026
-0.033
-0.076
-0.101
-0.107
-0.098
-0.084
-0.074
-0.067
-0.064
-0.063
-0.062
-0.061
-0.061
-0.06
-0.059
-0.058
-0.057
-0.055
-0.055
-0.055
-0.054
-0.053
-0.05
-0.046
-0.04
-0.033
-0.025
-0.017
-0.009
-0.002
0.007
0.015
0.025
0.035
0.046
0.057
0.066
0.076
0.083
0.087
0.09
0.093
0.094
0.095
0.096
0.097
0.097
0.096
0.095
0.092
0.09
0.086
0.082
0.077
0.071
0.063
0.053
0.043
0.032
0.022
0.012
0.003
-0.007
-0.015
-0.024
-0.032
-0.04
-0.049
-0.055
-0.061
-0.063
-0.064
-0.063
-0.062
-0.061
-0.06
-0.059
-0.058
-0.057
-0.056
-0.055
-0.055
-0.055
-0.055
-0.055
-0.055
-0.055
-0.054
-0.054
-0.054
-0.053
-0.052
-0.051
-0.05
-0.048
-0.047
-0.046
-0.045
-0.044
-0.043
-0.044
-0.044
-0.043
-0.042
-0.042
-0.042
-0.04
-0.041
-0.041
-0.04
-0.039
-0.039
-0.038
-0.038
-0.037
-0.037
-0.036
-0.035
-0.034
-0.034
-0.034
-0.034
-0.034
-0.033
-0.031
-0.028
-0.024
-0.018
-0.01
-0.001
0.007
0.015
0.023
0.028
0.032
0.035
0.037
0.037
0.035
0.034
0.028
0.022
0.015
0.007
-0.001
-0.008
-0.016
-0.022
-0.026
-0.029
-0.031
-0.031
-0.032
-0.032
-0.032
-0.031
-0.031
-0.03
-0.03
-0.031
-0.032
-0.032
-0.031
-0.03
-0.03
-0.03
-0.03
-0.032
-0.038
-0.038
-0.001
0.023
0.06
0.113
0.171
0.201
0.258
0.315
0.368
0.404
0.417
0.403
0.365
0.304
0.236
0.169
0.101
0.033
-0.027
-0.071
-0.096
-0.105
-0.096
-0.082
-0.072
-0.065
-0.062
-0.062
-0.062
-0.061
-0.06
-0.06
-0.06
-0.06
-0.059
-0.059
-0.059
-0.058
-0.056
-0.055
-0.053
-0.049
-0.044
-0.038
-0.03
-0.021
-0.012
-0.003
0.005
0.014
0.023
0.032
0.043
0.054
0.064
0.073
0.079
0.084
0.087
0.089
0.091
0.093
0.093
0.094
0.092
0.09
0.088
0.085
0.079
0.077
0.073
0.069
0.063
0.059
0.052
0.043
0.033
0.022
0.013
0.003
-0.007
-0.016
-0.025
-0.035
-0.045
-0.053
-0.061
-0.066
-0.07
-0.071
-0.07
-0.069
-0.068
-0.068
-0.069
-0.069
-0.07
-0.07
-0.069
-0.067
-0.066
-0.064
-0.062
-0.062
-0.061
-0.062
-0.062
-0.063
-0.062
-0.061
-0.06
-0.06
-0.059
-0.058
-0.057
-0.056
-0.055
-0.055
-0.056
-0.056
-0.055
-0.055
-0.054
-0.053
-0.053
-0.053
-0.054
-0.055
-0.055
-0.055
-0.054
-0.053
-0.051
-0.051
-0.051
-0.05
-0.049
-0.049
-0.048
-0.047
-0.047
-0.047
-0.046
-0.044
-0.04
-0.034
-0.026
-0.018
-0.009
-0.001
0.008
0.014
0.019
0.022
0.024
0.022
0.021
0.019
0.015
0.01
0.004
-0.003
-0.011
-0.02
-0.028
-0.034
-0.039
-0.043
-0.045
-0.045
-0.046
-0.046
-0.046
-0.045
-0.045
-0.045
-0.044
-0.045
-0.046
-0.045
-0.044
-0.044
-0.043
-0.043
-0.043
-0.045
-0.05
-0.05
-0.038
-0.015
0.02
0.071
0.13
0.187
0.244
0.3
0.354
0.392
0.405
0.394
0.358
0.298
0.23
0.162
0.093
0.025
-0.035
-0.08
-0.108
-0.117
-0.109
-0.094
-0.084
-0.076
-0.073
-0.071
-0.071
-0.069
-0.067
-0.066
-0.065
-0.064
-0.063
-0.064
-0.064
-0.063
-0.064
-0.065
-0.064
-0.06
-0.055
-0.048
-0.038
-0.028
-0.018
-0.009
-0
0.009
0.018
0.027
0.036
0.046
0.055
0.063
0.07
0.076
0.08
0.082
0.084
0.085
0.087
0.088
0.089
0.089
0.088
0.085
0.082
0.078
0.074
0.069
0.063
0.056
0.048
0.038
0.027
0.018
0.008
-0.001
-0.01
-0.018
-0.026
-0.036
-0.046
-0.056
-0.065
-0.07
-0.074
-0.075
-0.073
-0.072
-0.072
-0.071
-0.069
-0.068
-0.067
-0.065
-0.064
-0.064
-0.064
-0.063
-0.063
-0.063
-0.062
-0.061
-0.061
-0.061
-0.06
-0.06
-0.06
-0.06
-0.058
-0.056
-0.055
-0.053
-0.051
-0.05
-0.05
-0.051
-0.05
-0.05
-0.05
-0.049
-0.048
-0.047
-0.047
-0.047
-0.047
-0.047
-0.046
-0.046
-0.044
-0.044
-0.044
-0.043
-0.042
-0.042
-0.042
-0.041
-0.041
-0.041
-0.04
-0.037
-0.033
-0.026
-0.018
-0.01
-0.001
0.007
0.014
0.02
0.025
0.028
0.03
0.031
0.029
0.027
0.022
0.017
0.01
0.004
-0.004
-0.012
-0.02
-0.027
-0.032
-0.035
-0.035
-0.034
-0.034
-0.035
-0.035
-0.035
-0.035
-0.034
-0.033
-0.033
-0.032
-0.031
-0.03
-0.029
-0.029
-0.029
-0.028
-0.031
-0.036
-0.038
-0.027
-0.005
0.032
0.083
0.141
0.197
0.253
0.309
0.363
0.402
0.416
0.406
0.371
0.312
0.244
0.176
0.109
0.041
-0.02
-0.064
-0.091
-0.101
-0.093
-0.079
-0.068
-0.061
-0.057
-0.057
-0.057
-0.056
-0.055
-0.054
-0.053
-0.052
-0.052
-0.051
-0.051
-0.049
-0.048
-0.046
-0.045
-0.042
-0.037
-0.03
-0.022
-0.013
-0.004
0.003
0.011
0.02
0.029
0.038
0.049
0.059
0.069
0.077
0.085
0.091
0.095
0.098
0.1
0.101
0.102
0.103
0.103
0.102
0.099
0.096
0.094
0.09
0.086
0.082
0.077
0.07
0.062
0.052
0.041
0.031
0.021
0.012
0.003
-0.005
-0.014
-0.023
-0.033
-0.042
-0.049
-0.054
-0.058
-0.06
-0.059
-0.058
-0.057
-0.056
-0.055
-0.055
-0.056
-0.056
-0.056
-0.056
-0.055
-0.053
-0.052
-0.051
-0.05
-0.049
-0.049
-0.049
-0.048
-0.047
-0.046
-0.046
-0.045
-0.046
-0.046
-0.046
-0.045
-0.046
-0.046
-0.045
-0.045
-0.043
-0.042
-0.04
-0.038
-0.037
-0.037
-0.038
-0.04
-0.041
-0.042
-0.041
-0.04
-0.039
-0.038
-0.037
-0.037
-0.037
-0.036
-0.035
-0.035
-0.036
-0.036
-0.034
-0.031
-0.025
-0.017
-0.009
-0.001
0.007
0.015
0.022
0.028
0.032
0.034
0.034
0.033
0.03
0.026
0.021
0.014
0.006
-0.002
-0.011
-0.019
-0.025
-0.03
-0.033
-0.035
-0.034
-0.035
-0.035
-0.035
-0.035
-0.036
-0.035
-0.034
-0.034
-0.033
-0.033
-0.032
-0.031
-0.032
-0.032
-0.031
-0.033
-0.038
-0.039
-0.029
-0.009
0.025
0.074
0.132
0.189
0.246
0.301
0.355
0.396
0.412
0.404
0.344
0.287
0.217
0.149
0.082
0.041
-0.02
-0.066
-0.096
-0.106
-0.101
-0.087
-0.076
-0.069
-0.065
-0.064
-0.064
-0.063
-0.063
-0.063
-0.062
-0.061
-0.06
-0.059
-0.059
-0.059
-0.059
-0.059
-0.058
-0.055
-0.05
-0.042
-0.034
-0.024
-0.016
-0.007
0.001
0.009
0.019
0.029
0.039
0.048
0.058
0.066
0.073
0.078
0.081
0.083
0.085
0.085
0.086
0.086
0.088
0.087
0.085
0.083
0.081
0.076
0.072
0.069
0.064
0.056
0.048
0.038
0.027
0.016
0.006
-0.003
-0.012
-0.021
-0.03
-0.038
-0.047
-0.056
-0.063
-0.069
-0.073
-0.075
-0.075
-0.074
-0.073
-0.073
-0.072
-0.07
-0.07
-0.069
-0.068
-0.067
-0.067
-0.067
-0.066
-0.066
-0.065
-0.064
-0.063
-0.062
-0.062
-0.062
-0.062
-0.062
-0.062
-0.061
-0.061
-0.059
-0.059
-0.058
-0.058
-0.058
-0.057
-0.057
-0.057
-0.057
-0.055
-0.055
-0.054
-0.053
-0.051
-0.05
-0.049
-0.05
-0.049
-0.05
-0.051
-0.051
-0.049
-0.049
-0.048
-0.048
-0.048
-0.048
-0.047
-0.045
-0.04
-0.034
-0.027
-0.018
-0.01
-0.002
0.005
0.011
0.015
0.019
0.021
0.022
0.022
0.02
0.018
0.013
0.006
-0.003
-0.012
-0.021
-0.03
-0.036
-0.041
-0.044
-0.046
-0.046
-0.045
-0.044
-0.044
-0.042
-0.043
-0.043
-0.043
-0.042
-0.042
-0.041
-0.041
-0.041
-0.041
-0.041
-0.04
-0.042
-0.046
-0.047
-0.038
-0.018
0.016
0.064
0.143
0.2
0.257
0.314
0.369
0.389
0.406
0.399
0.366
0.309
0.241
0.173
0.105
0.037
-0.026
-0.073
-0.102
-0.114
-0.109
-0.095
-0.083
-0.075
-0.069
-0.068
-0.066
-0.066
-0.065
-0.065
-0.065
-0.064
-0.062
-0.061
-0.06
-0.059
-0.058
-0.059
-0.058
-0.055
-0.05
-0.044
-0.035
-0.026
-0.017
-0.008
0.001
0.009
0.019
0.029
0.038
0.048
0.058
0.067
0.074
0.079
0.084
0.087
0.09
0.092
0.094
0.095
0.095
0.094
0.092
0.089
0.083
0.079
0.075
0.072
0.067
0.062
0.054
0.045
0.034
0.023
0.013
0.003
-0.006
-0.015
-0.023
-0.031
-0.04
-0.048
-0.055
-0.061
-0.065
-0.067
-0.067
-0.067
-0.066
-0.065
-0.063
-0.062
-0.062
-0.06
-0.059
-0.059
-0.059
-0.059
-0.057
-0.057
-0.055
-0.053
-0.051
-0.051
-0.05
-0.05
-0.05
-0.05
-0.049
-0.049
-0.049
-0.049
-0.049
-0.049
-0.048
-0.047
-0.046
-0.045
-0.046
-0.046
-0.046
-0.045
-0.045
-0.044
-0.043
-0.043
-0.043
-0.042
-0.04
-0.039
-0.038
-0.037
-0.036
-0.038
-0.038
-0.037
-0.037
-0.036
-0.035
-0.032
-0.028
-0.022
-0.015
-0.006
0.003
0.011
0.019
0.025
0.03
0.033
0.035
0.035
0.034
0.032
0.029
0.024
0.018
0.011
0.003
-0.005
-0.012
-0.018
-0.021
-0.024
-0.026
-0.027
-0.027
-0.028
-0.029
-0.029
-0.029
-0.031
-0.031
-0.03
-0.03
-0.029
-0.028
-0.027
-0.027
-0.026
-0.026
-0.028
-0.033
-0.035
-0.027
-0.008
0.025
0.073
0.131
0.19
0.248
0.304
0.359
0.4
0.418
0.411
0.38
0.324
0.256
0.187
0.118
0.051
-0.011
-0.058
-0.088
-0.102
-0.098
-0.085
-0.074
-0.067
-0.062
-0.061
-0.062
-0.061
-0.059
-0.058
-0.057
-0.056
-0.055
-0.055
-0.056
-0.056
-0.054
-0.052
-0.051
-0.047
-0.041
-0.036
-0.028
-0.019
-0.011
-0.002
0.007
0.015
0.024
0.034
0.045
0.055
0.064
0.073
0.08
0.085
0.088
0.091
0.094
0.096
0.096
0.096
0.096
0.095
0.093
0.092
0.089
0.086
0.082
0.079
0.073
0.067
0.058
0.048
0.036
0.025
0.016
0.007
-0.002
-0.011
-0.019
-0.027
-0.036
-0.045
-0.052
-0.058
-0.062
-0.064
-0.063
-0.063
-0.063
-0.062
-0.062
-0.061
-0.06
-0.059
-0.057
-0.057
-0.057
-0.056
-0.055
-0.055
-0.055
-0.054
-0.053
-0.053
-0.053
-0.053
-0.053
-0.054
-0.053
-0.052
-0.051
-0.051
-0.048
-0.048
-0.048
-0.048
-0.048
-0.048
-0.049
-0.049
-0.048
-0.048
-0.048
-0.047
-0.047
-0.047
-0.048
-0.048
-0.047
-0.047
-0.047
-0.046
-0.044
-0.044
-0.042
-0.041
-0.04
-0.04
-0.039
-0.038
-0.035
-0.03
-0.023
-0.014
-0.006
0.002
0.009
0.014
0.018
0.022
0.025
0.025
0.025
0.023
0.021
0.015
0.008
0.001
-0.012
-0.02
-0.029
-0.035
-0.041
-0.04
-0.042
-0.042
-0.042
-0.04
-0.04
-0.039
-0.039
-0.039
-0.039
-0.038
-0.038
-0.038
-0.038
-0.038
-0.039
-0.039
-0.038
-0.039
-0.044
-0.046
-0.038
-0.02
0.013
0.061
0.119
0.176
0.233
0.289
0.345
0.388
0.407
0.401
0.369
0.315
0.247
0.179
0.113
0.045
-0.019
-0.068
-0.099
-0.113
-0.109
-0.096
-0.085
-0.077
-0.072
-0.071
-0.07
-0.069
-0.068
-0.067
-0.067
-0.067
-0.066
-0.065
-0.065
-0.064
-0.063
-0.063
-0.062
-0.058
-0.054
-0.048
-0.04
-0.031
-0.023
-0.014
-0.005
0.004
0.013
0.023
0.032
0.043
0.052
0.061
0.069
0.075
0.079
0.082
0.084
0.084
0.084
0.084
0.083
0.083
0.082
0.08
0.079
0.076
0.073
0.069
0.064
0.057
0.048
0.039
0.029
0.018
0.008
-0.002
-0.012
-0.021
-0.029
-0.038
-0.047
-0.055
-0.062
-0.068
-0.072
-0.074
-0.075
-0.074
-0.074
-0.074
-0.073
-0.072
-0.072
-0.072
-0.07
-0.069
-0.067
-0.067
-0.064
-0.063
-0.062
-0.062
-0.061
-0.062
-0.062
-0.061
-0.061
-0.06
-0.059
-0.058
-0.057
-0.057
-0.057
-0.057
-0.057
-0.056
-0.056
-0.055
-0.054
-0.053
-0.051
-0.051
-0.05
-0.05
-0.05
-0.05
-0.05
-0.05
-0.05
-0.05
-0.049
-0.048
-0.047
-0.046
-0.045
-0.044
-0.043
-0.043
-0.042
-0.04
-0.037
-0.033
-0.026
-0.018
-0.01
-0.001
0.007
0.013
0.018
0.021
0.024
0.025
0.025
0.024
0.022
0.018
0.012
0.005
-0.002
-0.01
-0.018
-0.024
-0.029
-0.034
-0.037
-0.038
-0.038
-0.039
-0.039
-0.038
-0.038
-0.037
-0.036
-0.036
-0.035
-0.034
-0.033
-0.033
-0.032
-0.032
-0.032
-0.033
-0.038
-0.042
-0.035
-0.016
0.015
0.061
0.119
0.177
0.234
0.291
0.338
0.383
0.405
0.403
0.374
0.33
0.262
0.193
0.124
0.056
-0.007
-0.056
-0.088
-0.103
-0.1
-0.088
-0.076
-0.068
-0.064
-0.062
-0.061
-0.059
-0.057
-0.056
-0.055
-0.054
-0.053
-0.053
-0.053
-0.052
-0.051
-0.051
-0.05
-0.048
-0.044
-0.038
-0.031
-0.022
-0.012
-0.003
0.006
0.015
0.024
0.034
0.045
0.055
0.065
0.073
0.081
0.086
0.09
0.093
0.095
0.097
0.098
0.098
0.098
0.098
0.096
0.094
0.092
0.089
0.086
0.082
0.077
0.071
0.063
0.054
0.043
0.032
0.022
0.012
0.003
-0.006
-0.014
-0.023
-0.032
-0.041
-0.05
-0.055
-0.06
-0.062
-0.061
-0.06
-0.06
-0.06
-0.058
-0.057
-0.058
-0.057
-0.056
-0.057
-0.056
-0.056
-0.057
-0.056
-0.055
-0.055
-0.053
-0.051
-0.05
-0.048
-0.047
-0.046
-0.045
-0.045
-0.045
-0.046
-0.045
-0.044
-0.043
-0.042
-0.041
-0.041
-0.042
-0.042
-0.041
-0.041
-0.04
-0.038
-0.037
-0.037
-0.037
-0.037
-0.036
-0.036
-0.035
-0.034
-0.033
-0.033
-0.034
-0.033
-0.032
-0.033
-0.032
-0.03
-0.027
-0.023
-0.016
-0.007
0.001
0.009
0.017
0.024
0.029
0.032
0.034
0.035
0.034
0.033
0.031
0.026
0.02
0.013
0.006
-0.003
-0.011
-0.018
-0.024
-0.029
-0.031
-0.031
-0.031
-0.03
-0.03
-0.03
-0.03
-0.03
-0.029
-0.028
-0.028
-0.028
-0.027
-0.027
-0.026
-0.027
-0.027
-0.029
-0.034
-0.039
-0.032
-0.014
0.017
0.063
0.121
0.179
0.235
0.292
0.338
0.383
0.404
0.402
0.374
0.332
0.265
0.198
0.131
0.063
-0.002
-0.052
-0.085
-0.1
-0.097
-0.084
-0.071
-0.063
-0.058
-0.057
-0.058
-0.058
-0.057
-0.057
-0.057
-0.057
-0.055
-0.054
-0.053
-0.051
-0.05
-0.051
-0.051
-0.049
-0.046
-0.04
-0.033
-0.023
-0.009
-0
0.009
0.018
0.027
0.032
0.041
0.051
0.06
0.069
0.075
0.08
0.083
0.085
0.087
0.089
0.089
0.089
0.089
0.088
0.086
0.084
0.081
0.079
0.075
0.072
0.066
0.061
0.053
0.045
0.036
0.027
0.016
0.006
-0.004
-0.013
-0.022
-0.03
-0.04
-0.051
-0.059
-0.064
-0.068
-0.07
-0.068
-0.067
-0.066
-0.065
-0.064
-0.064
-0.064
-0.064
-0.064
-0.064
-0.065
-0.065
-0.064
-0.063
-0.062
-0.061
-0.059
-0.058
-0.058
-0.058
-0.057
-0.057
-0.057
-0.056
-0.055
-0.056
-0.055
-0.055
-0.054
-0.053
-0.051
-0.049
-0.048
-0.048
-0.049
-0.049
-0.049
-0.049
-0.049
-0.049
-0.049
-0.049
-0.048
-0.047
-0.047
-0.046
-0.045
-0.045
-0.044
-0.043
-0.042
-0.042
-0.041
-0.038
-0.035
-0.03
-0.024
-0.016
-0.008
-0
0.008
0.015
0.021
0.024
0.026
0.027
0.025
0.022
0.018
0.013
0.006
-0.001
-0.008
-0.017
-0.025
-0.032
-0.038
-0.042
-0.044
-0.045
-0.044
-0.044
-0.044
-0.043
-0.044
-0.044
-0.044
-0.044
-0.044
-0.044
-0.042
-0.042
-0.042
-0.041
-0.045
-0.045
-0.049
-0.052
-0.047
-0.024
0.005
0.049
0.105
0.163
0.221
0.278
0.334
0.38
0.403
0.402
0.375
0.324
0.256
0.187
0.118
0.05
-0.014
-0.064
-0.096
-0.113
-0.113
-0.099
-0.087
-0.079
-0.073
-0.071
-0.07
-0.07
-0.069
-0.069
-0.068
-0.068
-0.067
-0.066
-0.067
-0.067
-0.066
-0.065
-0.064
-0.061
-0.055
-0.049
-0.042
-0.033
-0.023
-0.016
-0.007
0.002
0.012
0.022
0.032
0.042
0.051
0.06
0.067
0.072
0.076
0.08
0.082
0.083
0.085
0.086
0.086
0.086
0.085
0.082
0.08
0.078
0.075
0.072
0.068
0.061
0.053
0.043
0.033
0.022
0.012
0.002
-0.007
-0.017
-0.025
-0.034
-0.043
-0.052
-0.06
-0.066
-0.07
-0.072
-0.072
-0.072
-0.072
-0.071
-0.07
-0.069
-0.068
-0.067
-0.066
-0.065
-0.064
-0.064
-0.062
-0.062
-0.062
-0.061
-0.061
-0.06
-0.059
-0.057
-0.055
-0.055
-0.055
-0.054
-0.055
-0.055
-0.054
-0.053
-0.052
-0.051
-0.05
-0.051
-0.051
-0.051
-0.051
-0.05
-0.049
-0.049
-0.049
-0.047
-0.046
-0.045
-0.043
-0.042
-0.043
-0.043
-0.043
-0.043
-0.042
-0.042
-0.042
-0.042
-0.042
-0.039
-0.036
-0.029
-0.022
-0.015
-0.006
0.002
0.01
0.017
0.022
0.026
0.028
0.028
0.028
0.026
0.023
0.019
0.013
0.007
-0
-0.008
-0.016
-0.024
-0.028
-0.033
-0.036
-0.037
-0.037
-0.037
-0.037
-0.035
-0.034
-0.033
-0.033
-0.033
-0.033
-0.035
-0.035
-0.035
-0.035
-0.034
-0.032
-0.032
-0.035
-0.04
-0.035
-0.018
0.012
0.057
0.114
0.172
0.229
0.284
0.341
0.388
0.413
0.412
0.364
0.313
0.245
0.177
0.111
0.068
0.002
-0.05
-0.085
-0.102
-0.101
-0.087
-0.074
-0.065
-0.06
-0.058
-0.058
-0.057
-0.056
-0.055
-0.055
-0.054
-0.052
-0.051
-0.051
-0.05
-0.049
-0.049
-0.048
-0.046
-0.036
-0.029
-0.021
-0.011
-0.002
0.001
0.009
0.017
0.025
0.035
0.044
0.054
0.064
0.073
0.08
0.086
0.091
0.094
0.097
0.098
0.098
0.098
0.097
0.096
0.095
0.094
0.091
0.088
0.085
0.082
0.078
0.072
0.064
0.054
0.044
0.033
0.022
0.013
0.004
-0.005
-0.013
-0.022
-0.03
-0.039
-0.047
-0.053
-0.058
-0.061
-0.06
-0.06
-0.059
-0.058
-0.058
-0.058
-0.057
-0.056
-0.054
-0.053
-0.053
-0.052
-0.051
-0.051
-0.051
-0.05
-0.05
-0.051
-0.051
-0.05
-0.049
-0.047
-0.047
-0.045
-0.045
-0.045
-0.044
-0.044
-0.043
-0.044
-0.044
-0.044
-0.044
-0.044
-0.042
-0.041
-0.04
-0.04
-0.04
-0.04
-0.04
-0.04
-0.039
-0.038
-0.037
-0.036
-0.036
-0.036
-0.036
-0.036
-0.036
-0.035
-0.035
-0.033
-0.029
-0.023
-0.016
-0.007
0.001
0.008
0.016
0.022
0.026
0.03
0.032
0.032
0.031
0.029
0.027
0.022
0.016
0.01
0.003
-0.005
-0.012
-0.019
-0.025
-0.03
-0.034
-0.036
-0.038
-0.038
-0.037
-0.036
-0.036
-0.034
-0.035
-0.035
-0.035
-0.035
-0.034
-0.033
-0.032
-0.031
-0.031
-0.032
-0.035
-0.039
-0.035
-0.019
0.01
0.053
0.108
0.165
0.222
0.279
0.335
0.382
0.408
0.41
0.358
0.31
0.245
0.177
0.109
0.069
0.004
-0.049
-0.085
-0.104
-0.104
-0.092
-0.079
-0.07
-0.066
-0.065
-0.065
-0.065
-0.063
-0.062
-0.061
-0.06
-0.058
-0.058
-0.058
-0.057
-0.057
-0.057
-0.056
-0.054
-0.051
-0.045
-0.037
-0.028
-0.019
-0.01
-0.001
0.007
0.016
0.025
0.035
0.044
0.053
0.061
0.068
0.074
0.078
0.082
0.085
0.087
0.087
0.088
0.088
0.088
0.087
0.086
0.083
0.08
0.076
0.072
0.067
0.061
0.053
0.044
0.03
0.019
0.008
-0.002
-0.011
-0.018
-0.027
-0.036
-0.045
-0.054
-0.061
-0.067
-0.071
-0.073
-0.072
-0.072
-0.072
-0.072
-0.071
-0.071
-0.071
-0.07
-0.069
-0.068
-0.068
-0.068
-0.067
-0.066
-0.066
-0.065
-0.063
-0.063
-0.062
-0.06
-0.06
-0.061
-0.061
-0.061
-0.06
-0.06
-0.059
-0.058
-0.058
-0.058
-0.057
-0.057
-0.056
-0.055
-0.055
-0.054
-0.053
-0.053
-0.052
-0.051
-0.052
-0.052
-0.051
-0.051
-0.051
-0.05
-0.049
-0.048
-0.047
-0.047
-0.046
-0.047
-0.047
-0.046
-0.042
-0.037
-0.031
-0.022
-0.013
-0.005
0.002
0.009
0.014
0.018
0.022
0.023
0.022
0.019
0.016
0.011
0.004
-0.002
-0.01
-0.019
-0.027
-0.034
-0.039
-0.043
-0.045
-0.046
-0.045
-0.045
-0.046
-0.046
-0.046
-0.046
-0.045
-0.044
-0.044
-0.043
-0.043
-0.042
-0.042
-0.042
-0.041
-0.04
-0.043
-0.047
-0.042
-0.027
0
0.043
0.099
0.158
0.216
0.273
0.329
0.378
0.404
0.405
0.382
0.334
0.267
0.199
0.132
0.064
-0.002
-0.055
-0.09
-0.108
-0.108
-0.096
-0.083
-0.074
-0.07
-0.068
-0.068
-0.067
-0.066
-0.065
-0.065
-0.065
-0.064
-0.064
-0.063
-0.062
-0.061
-0.06
-0.058
-0.055
-0.05
-0.044
-0.037
-0.028
-0.016
-0.008
0.001
0.011
0.02
0.027
0.036
0.046
0.055
0.064
0.071
0.077
0.082
0.086
0.088
0.089
0.09
0.091
0.092
0.091
0.089
0.086
0.083
0.08
0.076
0.072
0.068
0.062
0.054
0.046
0.033
0.023
0.014
0.005
-0.005
-0.01
-0.019
-0.029
-0.038
-0.047
-0.055
-0.06
-0.064
-0.067
-0.067
-0.066
-0.066
-0.065
-0.063
-0.062
-0.061
-0.061
-0.061
-0.062
-0.062
-0.061
-0.06
-0.058
-0.057
-0.056
-0.055
-0.054
-0.053
-0.052
-0.05
-0.049
-0.048
-0.047
-0.046
-0.046
-0.046
-0.045
-0.044
-0.043
-0.043
-0.042
-0.041
-0.041
-0.04
-0.04
-0.04
-0.04
-0.039
-0.039
-0.039
-0.038
-0.037
-0.037
-0.037
-0.037
-0.036
-0.036
-0.036
-0.035
-0.035
-0.035
-0.035
-0.032
-0.028
-0.021
-0.014
-0.006
0.002
0.01
0.018
0.026
0.031
0.036
0.038
0.039
0.038
0.035
0.033
0.028
0.022
0.016
0.009
0.001
-0.007
-0.014
-0.019
-0.023
-0.026
-0.028
-0.028
-0.029
-0.029
-0.028
-0.027
-0.026
-0.025
-0.025
-0.024
-0.024
-0.025
-0.025
-0.025
-0.025
-0.024
-0.025
-0.028
-0.032
-0.028
-0.012
0.016
0.057
0.112
0.169
0.227
0.284
0.34
0.39
0.418
0.421
0.4
0.353
0.288
0.221
0.154
0.085
0.018
-0.035
-0.072
-0.092
-0.095
-0.083
-0.069
-0.06
-0.054
-0.052
-0.052
-0.052
-0.051
-0.051
-0.049
-0.048
-0.047
-0.046
-0.046
-0.046
-0.045
-0.045
-0.045
-0.044
-0.04
-0.035
-0.028
-0.018
-0.005
0.004
0.013
0.021
0.03
0.035
0.045
0.055
0.065
0.074
0.082
0.088
0.094
0.097
0.1
0.101
0.102
0.102
0.102
0.1
0.098
0.096
0.093
0.09
0.087
0.083
0.078
0.071
0.062
0.053
0.043
0.031
0.021
0.012
0.003
-0.005
-0.014
-0.023
-0.031
-0.04
-0.049
-0.056
-0.061
-0.065
-0.066
-0.065
-0.065
-0.064
-0.062
-0.061
-0.06
-0.059
-0.059
-0.06
-0.06
-0.061
-0.061
-0.061
-0.06
-0.059
-0.057
-0.056
-0.055
-0.054
-0.052
-0.052
-0.052
-0.05
-0.049
-0.05
-0.05
-0.05
-0.05
-0.051
-0.05
-0.05
-0.049
-0.049
-0.047
-0.047
-0.047
-0.047
-0.047
-0.047
-0.046
-0.046
-0.044
-0.044
-0.044
-0.044
-0.044
-0.044
-0.044
-0.043
-0.041
-0.041
-0.041
-0.039
-0.035
-0.032
-0.026
-0.018
-0.009
-0.001
0.006
0.012
0.017
0.021
0.024
0.026
0.025
0.023
0.02
0.015
0.008
0.001
-0.006
-0.015
-0.023
-0.03
-0.036
-0.04
-0.043
-0.044
-0.044
-0.043
-0.043
-0.042
-0.041
-0.041
-0.042
-0.042
-0.041
-0.041
-0.041
-0.04
-0.04
-0.041
-0.041
-0.041
-0.045
-0.049
-0.046
-0.03
-0.003
0.038
0.094
0.152
0.208
0.264
0.321
0.372
0.401
0.406
0.386
0.34
0.275
0.206
0.112
0.045
-0.022
-0.078
-0.11
-0.102
-0.105
-0.094
-0.08
-0.077
-0.072
-0.07
-0.07
-0.07
-0.069
-0.068
-0.067
-0.066
-0.064
-0.063
-0.062
-0.061
-0.06
-0.06
-0.06
-0.058
-0.055
-0.049
-0.042
-0.033
-0.024
-0.015
-0.007
0.001
0.011
0.021
0.03
0.041
0.052
0.06
0.067
0.073
0.078
0.081
0.084
0.086
0.087
0.087
0.087
0.086
0.084
0.082
0.079
0.076
0.072
0.069
0.065
0.059
0.052
0.043
0.034
0.023
0.013
0.003
-0.011
-0.02
-0.028
-0.036
-0.045
-0.048
-0.057
-0.063
-0.068
-0.071
-0.072
-0.071
-0.071
-0.07
-0.069
-0.069
-0.069
-0.068
-0.067
-0.066
-0.065
-0.064
-0.063
-0.062
-0.062
-0.062
-0.061
-0.061
-0.061
-0.061
-0.061
-0.062
-0.062
-0.061
-0.06
-0.059
-0.06
-0.059
-0.059
-0.059
-0.058
-0.056
-0.057
-0.057
-0.056
-0.056
-0.057
-0.056
-0.055
-0.054
-0.053
-0.052
-0.051
-0.051
-0.05
-0.05
-0.048
-0.048
-0.048
-0.047
-0.047
-0.047
-0.046
-0.044
-0.041
-0.036
-0.03
-0.022
-0.014
-0.005
0.003
0.011
0.017
0.022
0.025
0.026
0.025
0.023
0.02
0.015
0.008
0.001
-0.006
-0.014
-0.022
-0.029
-0.034
-0.038
-0.041
-0.042
-0.041
-0.042
-0.042
-0.042
-0.041
-0.04
-0.04
-0.039
-0.038
-0.039
-0.038
-0.038
-0.039
-0.039
-0.039
-0.039
-0.042
-0.046
-0.043
-0.028
-0.001
0.04
0.094
0.153
0.211
0.268
0.325
0.375
0.406
0.411
0.392
0.347
0.284
0.216
0.123
0.055
-0.012
-0.068
-0.106
-0.101
-0.104
-0.093
-0.078
-0.067
-0.061
-0.058
-0.058
-0.059
-0.058
-0.058
-0.057
-0.056
-0.056
-0.055
-0.055
-0.054
-0.053
-0.053
-0.053
-0.051
-0.047
-0.041
-0.034
-0.025
-0.016
-0.007
0.002
0.011
0.021
0.031
0.042
0.052
0.062
0.071
0.078
0.085
0.09
0.092
0.094
0.095
0.095
0.095
0.096
0.095
0.094
0.093
0.09
0.087
0.083
0.079
0.075
0.069
0.062
0.054
0.044
0.033
0.022
0.012
-0.001
-0.009
-0.018
-0.025
-0.033
-0.039
-0.047
-0.053
-0.057
-0.06
-0.06
-0.059
-0.058
-0.059
-0.059
-0.059
-0.058
-0.058
-0.057
-0.057
-0.056
-0.056
-0.055
-0.054
-0.054
-0.052
-0.051
-0.051
-0.05
-0.049
-0.049
-0.048
-0.047
-0.046
-0.046
-0.046
-0.046
-0.045
-0.043
-0.042
-0.04
-0.039
-0.038
-0.038
-0.038
-0.037
-0.037
-0.036
-0.035
-0.035
-0.035
-0.035
-0.034
-0.034
-0.034
-0.033
-0.031
-0.031
-0.031
-0.031
-0.031
-0.033
-0.033
-0.032
-0.027
-0.022
-0.014
-0.005
0.005
0.011
0.018
0.025
0.029
0.032
0.034
0.035
0.035
0.034
0.033
0.028
0.021
0.013
0.005
-0.004
-0.012
-0.02
-0.026
-0.031
-0.034
-0.035
-0.035
-0.035
-0.035
-0.034
-0.034
-0.033
-0.032
-0.03
-0.029
-0.028
-0.028
-0.028
-0.027
-0.027
-0.026
-0.027
-0.03
-0.036
-0.034
-0.021
0.004
0.043
0.098
0.156
0.213
0.27
0.326
0.379
0.412
0.419
0.402
0.36
0.295
0.227
0.16
0.093
0.026
-0.032
-0.072
-0.095
-0.1
-0.089
-0.074
-0.065
-0.06
-0.058
-0.059
-0.06
-0.059
-0.057
-0.055
-0.054
-0.053
-0.052
-0.053
-0.053
-0.053
-0.053
-0.054
-0.053
-0.049
-0.044
-0.035
-0.025
-0.015
-0.005
0.004
0.012
0.022
0.031
0.039
0.049
0.06
0.066
0.075
0.081
0.085
0.088
0.09
0.091
0.092
0.092
0.092
0.091
0.089
0.088
0.087
0.085
0.082
0.078
0.073
0.065
0.057
0.047
0.036
0.026
0.015
0.005
-0.009
-0.019
-0.027
-0.035
-0.044
-0.049
-0.058
-0.065
-0.07
-0.073
-0.073
-0.072
-0.071
-0.07
-0.069
-0.067
-0.067
-0.068
-0.068
-0.068
-0.069
-0.069
-0.068
-0.066
-0.066
-0.065
-0.064
-0.063
-0.062
-0.061
-0.06
-0.059
-0.06
-0.06
-0.059
-0.059
-0.058
-0.058
-0.057
-0.057
-0.057
-0.056
-0.056
-0.056
-0.055
-0.055
-0.054
-0.053
-0.052
-0.051
-0.05
-0.05
-0.049
-0.05
-0.05
-0.049
-0.048
-0.048
-0.048
-0.048
-0.048
-0.048
-0.048
-0.046
-0.037
-0.031
-0.023
-0.014
-0.005
-0.002
0.005
0.012
0.018
0.022
0.025
0.026
0.025
0.023
0.02
0.015
0.009
0.002
-0.006
-0.014
-0.023
-0.03
-0.036
-0.041
-0.045
-0.046
-0.046
-0.047
-0.046
-0.046
-0.045
-0.044
-0.044
-0.045
-0.045
-0.045
-0.045
-0.044
-0.042
-0.04
-0.04
-0.04
-0.043
-0.049
-0.048
-0.034
-0.008
0.032
0.085
0.142
0.199
0.255
0.312
0.364
0.397
0.405
0.388
0.346
0.282
0.214
0.147
0.079
0.012
-0.044
-0.082
-0.106
-0.112
-0.102
-0.088
-0.078
-0.072
-0.068
-0.067
-0.067
-0.066
-0.066
-0.065
-0.064
-0.064
-0.063
-0.062
-0.062
-0.061
-0.06
-0.059
-0.057
-0.053
-0.047
-0.041
-0.033
-0.024
-0.016
-0.007
0.001
0.016
0.026
0.036
0.046
0.057
0.059
0.066
0.072
0.076
0.079
0.082
0.085
0.085
0.086
0.087
0.086
0.085
0.083
0.082
0.08
0.077
0.073
0.069
0.062
0.053
0.044
0.033
0.023
0.012
0.002
-0.006
-0.015
-0.024
-0.033
-0.042
-0.051
-0.059
-0.065
-0.069
-0.072
-0.073
-0.071
-0.07
-0.07
-0.069
-0.068
-0.068
-0.068
-0.067
-0.067
-0.067
-0.066
-0.065
-0.064
-0.064
-0.063
-0.062
-0.061
-0.06
-0.059
-0.057
-0.055
-0.055
-0.055
-0.057
-0.058
-0.058
-0.057
-0.057
-0.054
-0.053
-0.052
-0.051
-0.05
-0.05
-0.05
-0.05
-0.05
-0.05
-0.05
-0.049
-0.047
-0.045
-0.044
-0.044
-0.043
-0.043
-0.043
-0.043
-0.043
-0.043
-0.042
-0.043
-0.042
-0.039
-0.035
-0.029
-0.021
-0.011
-0.001
0.008
0.016
0.023
0.027
0.029
0.03
0.029
0.027
0.025
0.022
0.016
0.01
-0.001
-0.009
-0.019
-0.027
-0.033
-0.035
-0.039
-0.04
-0.041
-0.041
-0.041
-0.041
-0.04
-0.04
-0.039
-0.038
-0.037
-0.037
-0.037
-0.036
-0.035
-0.033
-0.032
-0.032
-0.035
-0.04
-0.039
-0.026
-0.001
0.037
0.091
0.15
0.207
0.264
0.32
0.373
0.407
0.416
0.4
0.36
0.297
0.229
0.161
0.095
0.028
-0.03
-0.065
-0.09
-0.097
-0.088
-0.075
-0.072
-0.065
-0.062
-0.061
-0.059
-0.058
-0.057
-0.056
-0.055
-0.054
-0.053
-0.053
-0.052
-0.052
-0.052
-0.052
-0.05
-0.047
-0.042
-0.036
-0.027
-0.018
-0.008
0.002
0.012
0.022
0.032
0.042
0.052
0.063
0.072
0.079
0.086
0.091
0.095
0.098
0.1
0.101
0.101
0.101
0.1
0.099
0.097
0.095
0.093
0.09
0.086
0.081
0.075
0.067
0.058
0.048
0.037
0.026
0.016
0.007
-0.003
-0.012
-0.021
-0.032
-0.041
-0.05
-0.057
-0.062
-0.063
-0.065
-0.064
-0.063
-0.063
-0.062
-0.061
-0.06
-0.058
-0.056
-0.053
-0.052
-0.051
-0.052
-0.052
-0.053
-0.053
-0.053
-0.051
-0.052
-0.051
-0.049
-0.049
-0.048
-0.048
-0.047
-0.047
-0.047
-0.046
-0.044
-0.045
-0.044
-0.043
-0.042
-0.041
-0.04
-0.039
-0.039
-0.039
-0.039
-0.038
-0.038
-0.038
-0.037
-0.037
-0.037
-0.037
-0.037
-0.036
-0.036
-0.036
-0.036
-0.036
-0.036
-0.035
-0.032
-0.028
-0.021
-0.012
-0.003
0.007
0.015
0.023
0.028
0.032
0.034
0.035
0.034
0.032
0.03
0.025
0.02
0.013
0.006
-0.003
-0.011
-0.019
-0.025
-0.03
-0.034
-0.035
-0.036
-0.037
-0.037
-0.036
-0.035
-0.035
-0.034
-0.034
-0.033
-0.035
-0.034
-0.033
-0.035
-0.035
-0.034
-0.034
-0.036
-0.039
-0.038
-0.025
-0.002
0.036
0.088
0.145
0.202
0.259
0.317
0.369
0.403
0.414
0.4
0.359
0.298
0.231
0.164
0.096
0.028
-0.031
-0.073
-0.098
-0.106
-0.099
-0.085
-0.074
-0.069
-0.066
-0.064
-0.064
-0.063
-0.062
-0.061
-0.06
-0.059
-0.058
-0.058
-0.057
-0.056
-0.056
-0.056
-0.055
-0.052
-0.048
-0.042
-0.034
-0.025
-0.016
-0.008
0.001
0.01
0.02
0.029
0.039
0.05
0.059
0.066
0.072
0.077
0.08
0.081
0.082
0.083
0.083
0.084
0.084
0.083
0.081
0.079
0.076
0.072
0.069
0.064
0.058
0.051
0.042
0.033
0.022
0.011
0.001
-0.008
-0.017
-0.026
-0.035
-0.049
-0.057
-0.066
-0.073
-0.078
-0.075
-0.076
-0.076
-0.075
-0.075
-0.074
-0.073
-0.072
-0.071
-0.071
-0.07
-0.07
-0.069
-0.068
-0.067
-0.067
-0.066
-0.065
-0.065
-0.065
-0.065
-0.064
-0.064
-0.063
-0.062
-0.062
-0.061
-0.061
-0.061
-0.06
-0.059
-0.059
-0.057
-0.056
-0.056
-0.055
-0.054
-0.053
-0.054
-0.053
-0.051
-0.051
-0.051
-0.049
-0.049
-0.05
-0.05
-0.05
-0.05
-0.05
-0.049
-0.049
-0.049
-0.048
-0.047
-0.045
-0.04
-0.034
-0.027
-0.017
-0.009
-0.001
0.006
0.013
0.017
0.02
0.023
0.023
0.022
0.019
0.016
0.009
0.003
-0.004
-0.013
-0.022
-0.03
-0.036
-0.041
-0.043
-0.043
-0.043
-0.043
-0.044
-0.044
-0.044
-0.045
-0.045
-0.045
-0.044
-0.043
-0.041
-0.04
-0.039
-0.039
-0.038
-0.038
-0.039
-0.044
-0.044
-0.033
-0.01
0.025
0.076
0.134
0.192
0.249
0.305
0.359
0.396
0.407
0.394
0.357
0.296
0.227
0.158
0.09
0.023
-0.036
-0.079
-0.105
-0.113
-0.104
-0.089
-0.078
-0.07
-0.066
-0.065
-0.066
-0.065
-0.064
-0.063
-0.063
-0.062
-0.061
-0.061
-0.061
-0.06
-0.059
-0.058
-0.057
-0.054
-0.048
-0.041
-0.032
-0.022
-0.012
-0.005
0.003
0.012
0.021
0.031
0.04
0.055
0.064
0.072
0.079
0.085
0.083
0.085
0.086
0.087
0.088
0.088
0.088
0.088
0.086
0.084
0.082
0.079
0.075
0.071
0.066
0.059
0.052
0.043
0.033
0.022
0.011
0.002
-0.008
-0.016
-0.024
-0.032
-0.041
-0.051
-0.058
-0.062
-0.066
-0.067
-0.066
-0.064
-0.064
-0.064
-0.064
-0.063
-0.063
-0.063
-0.061
-0.06
-0.06
-0.059
-0.058
-0.058
-0.058
-0.058
-0.057
-0.058
-0.058
-0.057
-0.056
-0.056
-0.055
-0.053
-0.051
-0.051
-0.05
-0.049
-0.049
-0.048
-0.047
-0.046
-0.045
-0.045
-0.044
-0.044
-0.044
-0.044
-0.043
-0.043
-0.043
-0.042
-0.042
-0.042
-0.042
-0.042
-0.041
-0.039
-0.038
-0.036
-0.035
-0.035
-0.034
-0.031
-0.026
-0.02
-0.012
-0.001
0.007
0.014
0.021
0.027
0.029
0.032
0.034
0.035
0.035
0.033
0.029
0.023
0.017
0.009
0.002
-0.007
-0.015
-0.022
-0.028
-0.033
-0.035
-0.034
-0.034
-0.034
-0.033
-0.032
-0.032
-0.032
-0.032
-0.031
-0.031
-0.031
-0.029
-0.027
-0.026
-0.025
-0.023
-0.025
-0.03
-0.032
-0.021
0.001
0.038
0.089
0.146
0.203
0.26
0.317
0.37
0.408
0.422
0.41
0.373
0.314
0.246
0.179
0.112
0.044
-0.017
-0.061
-0.088
-0.098
-0.091
-0.079
-0.068
-0.061
-0.057
-0.056
-0.054
-0.054
-0.053
-0.053
-0.052
-0.05
-0.048
-0.047
-0.047
-0.047
-0.048
-0.049
-0.048
-0.045
-0.039
-0.033
-0.025
-0.015
-0.006
0.003
0.013
0.022
0.032
0.041
0.051
0.06
0.069
0.076
0.082
0.087
0.091
0.093
0.095
0.097
0.098
0.098
0.098
0.096
0.094
0.092
0.089
0.086
0.084
0.08
0.073
0.065
0.055
0.045
0.033
0.021
0.011
0.002
-0.006
-0.015
-0.022
-0.03
-0.038
-0.047
-0.053
-0.058
-0.061
-0.062
-0.062
-0.062
-0.061
-0.061
-0.061
-0.061
-0.061
-0.061
-0.06
-0.06
-0.06
-0.06
-0.059
-0.058
-0.058
-0.057
-0.057
-0.057
-0.056
-0.055
-0.054
-0.053
-0.052
-0.051
-0.05
-0.05
-0.05
-0.048
-0.049
-0.048
-0.047
-0.044
-0.045
-0.045
-0.045
-0.045
-0.046
-0.045
-0.045
-0.045
-0.045
-0.045
-0.045
-0.045
-0.044
-0.044
-0.044
-0.043
-0.042
-0.041
-0.04
-0.04
-0.04
-0.036
-0.032
-0.026
-0.017
-0.008
0
0.007
0.014
0.019
0.023
0.026
0.027
0.028
0.027
0.024
0.021
0.016
0.009
0.001
-0.007
-0.015
-0.023
-0.029
-0.034
-0.038
-0.039
-0.04
-0.041
-0.042
-0.042
-0.041
-0.041
-0.04
-0.039
-0.039
-0.039
-0.039
-0.039
-0.037
-0.037
-0.036
-0.036
-0.037
-0.044
-0.046
-0.036
-0.014
0.02
0.07
0.13
0.188
0.246
0.303
0.357
0.395
0.409
0.399
0.364
0.305
0.236
0.167
0.099
0.031
-0.03
-0.075
-0.103
-0.114
-0.108
-0.092
-0.08
-0.073
-0.069
-0.067
-0.068
-0.067
-0.067
-0.066
-0.065
-0.064
-0.063
-0.062
-0.062
-0.062
-0.062
-0.062
-0.061
-0.057
-0.052
-0.044
-0.035
-0.024
-0.015
-0.006
0.002
0.011
0.018
0.027
0.036
0.046
0.055
0.063
0.069
0.075
0.078
0.081
0.082
0.084
0.084
0.085
0.085
0.084
0.083
0.081
0.078
0.074
0.07
0.067
0.062
0.055
0.047
0.037
0.026
0.015
0.004
-0.006
-0.016
-0.025
-0.034
-0.042
-0.05
-0.058
-0.065
-0.07
-0.073
-0.074
-0.072
-0.071
-0.071
-0.071
-0.07
-0.07
-0.07
-0.069
-0.068
-0.067
-0.067
-0.067
-0.067
-0.067
-0.067
-0.066
-0.066
-0.066
-0.066
-0.065
-0.064
-0.064
-0.063
-0.061
-0.06
-0.059
-0.058
-0.057
-0.057
-0.056
-0.055
-0.054
-0.054
-0.054
-0.053
-0.052
-0.052
-0.051
-0.05
-0.049
-0.048
-0.048
-0.047
-0.048
-0.048
-0.048
-0.048
-0.048
-0.047
-0.045
-0.045
-0.045
-0.043
-0.041
-0.037
-0.03
-0.022
-0.012
-0.003
0.004
0.011
0.016
0.02
0.023
0.026
0.027
0.027
0.025
0.021
0.015
0.008
0.001
-0.007
-0.015
-0.023
-0.029
-0.034
-0.037
-0.039
-0.039
-0.039
-0.039
-0.039
-0.039
-0.039
-0.039
-0.039
-0.038
-0.038
-0.038
-0.036
-0.037
-0.036
-0.035
-0.034
-0.035
-0.039
-0.041
-0.032
-0.01
0.024
0.073
0.131
0.187
0.244
0.301
0.357
0.398
0.413
0.404
0.37
0.311
0.243
0.175
0.107
0.039
-0.023
-0.068
-0.096
-0.107
-0.101
-0.085
-0.074
-0.066
-0.062
-0.06
-0.06
-0.059
-0.058
-0.056
-0.055
-0.055
-0.054
-0.054
-0.054
-0.054
-0.054
-0.053
-0.052
-0.049
-0.044
-0.038
-0.029
-0.02
-0.011
-0.002
0.006
0.015
0.024
0.033
0.044
0.055
0.065
0.073
0.08
0.087
0.091
0.094
0.096
0.097
0.097
0.097
0.097
0.095
0.093
0.09
0.087
0.084
0.082
0.078
0.072
0.065
0.057
0.049
0.039
0.028
0.018
0.009
-0.001
-0.009
-0.018
-0.025
-0.034
-0.043
-0.05
-0.055
-0.059
-0.06
-0.06
-0.059
-0.059
-0.059
-0.058
-0.057
-0.056
-0.055
-0.054
-0.053
-0.052
-0.052
-0.052
-0.052
-0.051
-0.051
-0.05
-0.049
-0.048
-0.047
-0.045
-0.044
-0.043
-0.042
-0.042
-0.042
-0.04
-0.039
-0.038
-0.038
-0.037
-0.036
-0.037
-0.038
-0.037
-0.037
-0.038
-0.038
-0.037
-0.036
-0.036
-0.035
-0.034
-0.032
-0.032
-0.031
-0.031
-0.031
-0.031
-0.032
-0.032
-0.032
-0.031
-0.029
-0.023
-0.018
-0.011
-0.003
0.005
0.013
0.02
0.028
0.033
0.036
0.038
0.038
0.034
0.032
0.029
0.024
0.018
0.011
0.004
-0.005
-0.013
-0.019
-0.024
-0.028
-0.03
-0.031
-0.032
-0.033
-0.033
-0.032
-0.032
-0.031
-0.03
-0.03
-0.029
-0.028
-0.027
-0.027
-0.026
-0.026
-0.027
-0.028
-0.032
-0.034
-0.024
-0.002
0.032
0.08
0.138
0.194
0.249
0.304
0.358
0.4
0.418
0.411
0.379
0.323
0.253
0.183
0.114
0.047
-0.015
-0.062
-0.091
-0.103
-0.098
-0.084
-0.071
-0.064
-0.06
-0.06
-0.06
-0.06
-0.059
-0.058
-0.057
-0.057
-0.057
-0.058
-0.057
-0.056
-0.055
-0.054
-0.053
-0.05
-0.045
-0.04
-0.031
-0.021
-0.013
-0.005
0.004
0.013
0.021
0.03
0.04
0.051
0.06
0.069
0.076
0.082
0.085
0.088
0.09
0.092
0.093
0.094
0.094
0.093
0.091
0.088
0.086
0.083
0.079
0.074
0.068
0.061
0.052
0.041
0.031
0.022
0.013
0.003
-0.006
-0.016
-0.026
-0.036
-0.044
-0.053
-0.061
-0.066
-0.07
-0.072
-0.072
-0.071
-0.07
-0.07
-0.069
-0.067
-0.067
-0.067
-0.066
-0.065
-0.065
-0.065
-0.064
-0.063
-0.063
-0.062
-0.062
-0.063
-0.063
-0.062
-0.062
-0.062
-0.062
-0.061
-0.06
-0.059
-0.057
-0.054
-0.054
-0.054
-0.054
-0.055
-0.056
-0.055
-0.054
-0.053
-0.052
-0.053
-0.053
-0.052
-0.051
-0.05
-0.049
-0.05
-0.051
-0.051
-0.051
-0.051
-0.05
-0.049
-0.048
-0.048
-0.046
-0.043
-0.039
-0.033
-0.027
-0.018
-0.01
-0.003
0.005
0.013
0.018
0.021
0.023
0.023
0.023
0.021
0.018
0.013
0.006
-0.002
-0.011
-0.02
-0.029
-0.036
-0.041
-0.045
-0.045
-0.045
-0.045
-0.045
-0.045
-0.045
-0.045
-0.045
-0.044
-0.043
-0.043
-0.044
-0.044
-0.044
-0.044
-0.044
-0.043
-0.044
-0.048
-0.05
-0.04
-0.02
0.014
0.063
0.121
0.177
0.234
0.291
0.346
0.388
0.406
0.399
0.366
0.31
0.242
0.175
0.107
0.039
-0.025
-0.072
-0.102
-0.115
-0.11
-0.095
-0.084
-0.076
-0.071
-0.069
-0.069
-0.068
-0.067
-0.066
-0.067
-0.066
-0.066
-0.065
-0.064
-0.063
-0.063
-0.062
-0.062
-0.059
-0.055
-0.049
-0.041
-0.031
-0.022
-0.012
-0.004
0.005
0.015
0.025
0.035
0.045
0.055
0.064
0.071
0.077
0.08
0.082
0.083
0.085
0.086
0.086
0.086
0.086
0.083
0.081
0.078
0.075
0.071
0.067
0.062
0.056
0.048
0.039
0.029
0.018
0.008
-0.002
-0.012
-0.02
-0.028
-0.037
-0.045
-0.054
-0.061
-0.066
-0.07
-0.072
-0.071
-0.07
-0.07
-0.07
-0.07
-0.069
-0.069
-0.068
-0.066
-0.066
-0.065
-0.064
-0.063
-0.062
-0.061
-0.06
-0.059
-0.058
-0.057
-0.057
-0.057
-0.057
-0.057
-0.056
-0.055
-0.055
-0.054
-0.053
-0.052
-0.052
-0.051
-0.05
-0.05
-0.051
-0.05
-0.049
-0.049
-0.048
-0.048
-0.047
-0.047
-0.046
-0.044
-0.043
-0.042
-0.041
-0.04
-0.04
-0.04
-0.039
-0.039
-0.04
-0.041
-0.039
-0.036
-0.03
-0.022
-0.012
-0.003
0.006
0.013
0.019
0.024
0.027
0.029
0.03
0.029
0.028
0.024
0.02
0.013
0.007
-0.001
-0.01
-0.019
-0.025
-0.03
-0.034
-0.036
-0.036
-0.035
-0.035
-0.035
-0.034
-0.034
-0.035
-0.034
-0.033
-0.032
-0.032
-0.032
-0.032
-0.033
-0.033
-0.032
-0.035
-0.039
-0.041
-0.031
0.009
0.044
0.09
0.147
0.204
0.239
0.296
0.351
0.394
0.413
0.409
0.38
0.327
0.26
0.191
0.123
0.055
-0.009
-0.056
-0.087
-0.101
-0.097
-0.083
-0.071
-0.064
-0.06
-0.059
-0.059
-0.058
-0.056
-0.054
-0.054
-0.053
-0.052
-0.052
-0.052
-0.052
-0.051
-0.05
-0.05
-0.046
-0.041
-0.035
-0.028
-0.017
-0.008
0.001
0.01
0.02
0.029
0.039
0.049
0.06
0.07
0.078
0.085
0.091
0.094
0.096
0.098
0.098
0.099
0.099
0.1
0.1
0.1
0.096
0.093
0.089
0.085
0.082
0.076
0.069
0.061
0.052
0.041
0.031
0.021
0.012
0.002
-0.007
-0.015
-0.023
-0.032
-0.042
-0.049
-0.055
-0.058
-0.06
-0.06
-0.06
-0.059
-0.059
-0.057
-0.057
-0.054
-0.054
-0.053
-0.054
-0.054
-0.054
-0.054
-0.054
-0.053
-0.051
-0.05
-0.05
-0.049
-0.048
-0.047
-0.047
-0.047
-0.046
-0.046
-0.047
-0.046
-0.045
-0.045
-0.044
-0.044
-0.043
-0.043
-0.042
-0.042
-0.041
-0.042
-0.042
-0.042
-0.04
-0.04
-0.04
-0.039
-0.038
-0.04
-0.04
-0.039
-0.039
-0.038
-0.036
-0.036
-0.036
-0.036
-0.033
-0.03
-0.025
-0.018
-0.009
-0.001
0.007
0.014
0.021
0.026
0.029
0.031
0.032
0.032
0.031
0.029
0.025
0.018
0.01
0.001
-0.008
-0.017
-0.024
-0.03
-0.034
-0.037
-0.037
-0.037
-0.037
-0.037
-0.036
-0.036
-0.037
-0.037
-0.036
-0.036
-0.036
-0.035
-0.034
-0.034
-0.035
-0.035
-0.036
-0.041
-0.045
-0.037
-0.017
0.016
0.063
0.121
0.178
0.234
0.29
0.346
0.39
0.411
0.406
0.376
0.321
0.253
0.186
0.118
0.051
-0.014
-0.062
-0.094
-0.108
-0.105
-0.09
-0.077
-0.069
-0.065
-0.063
-0.063
-0.062
-0.062
-0.06
-0.061
-0.061
-0.06
-0.059
-0.06
-0.059
-0.059
-0.059
-0.058
-0.056
-0.051
-0.045
-0.037
-0.027
-0.018
-0.008
0.001
0.009
0.018
0.027
0.036
0.046
0.056
0.065
0.072
0.078
0.083
0.084
0.086
0.088
0.089
0.088
0.088
0.087
0.084
0.081
0.078
0.075
0.071
0.068
0.063
0.056
0.048
0.038
0.027
0.016
0.005
-0.005
-0.014
-0.023
-0.032
-0.041
-0.05
-0.059
-0.066
-0.071
-0.074
-0.075
-0.074
-0.072
-0.072
-0.071
-0.07
-0.069
-0.069
-0.069
-0.068
-0.067
-0.067
-0.066
-0.065
-0.065
-0.065
-0.065
-0.064
-0.064
-0.063
-0.06
-0.059
-0.058
-0.057
-0.056
-0.057
-0.058
-0.058
-0.058
-0.057
-0.057
-0.056
-0.055
-0.056
-0.056
-0.056
-0.058
-0.057
-0.057
-0.056
-0.055
-0.053
-0.053
-0.052
-0.052
-0.051
-0.051
-0.05
-0.051
-0.051
-0.05
-0.049
-0.049
-0.049
-0.046
-0.043
-0.037
-0.03
-0.021
-0.012
-0.004
0.003
0.01
0.015
0.018
0.02
0.018
0.017
0.015
0.013
0.009
0.006
-0.002
-0.009
-0.018
-0.026
-0.033
-0.037
-0.04
-0.042
-0.042
-0.042
-0.042
-0.042
-0.042
-0.042
-0.041
-0.041
-0.041
-0.041
-0.041
-0.041
-0.041
-0.041
-0.04
-0.04
-0.04
-0.044
-0.047
-0.04
-0.021
0.01
0.055
0.112
0.171
0.228
0.284
0.338
0.383
0.405
0.402
0.375
0.323
0.256
0.187
0.118
0.051
-0.013
-0.062
-0.095
-0.111
-0.11
-0.097
-0.085
-0.077
-0.072
-0.07
-0.069
-0.067
-0.066
-0.065
-0.065
-0.065
-0.064
-0.062
-0.06
-0.059
-0.058
-0.057
-0.057
-0.054
-0.05
-0.044
-0.036
-0.026
-0.017
-0.008
0.001
0.009
0.019
0.029
0.038
0.049
0.059
0.068
0.076
0.081
0.085
0.087
0.088
0.089
0.091
0.092
0.092
0.092
0.09
0.088
0.086
0.084
0.08
0.077
0.072
0.065
0.057
0.047
0.036
0.025
0.016
0.006
-0.003
-0.012
-0.022
-0.031
-0.041
-0.049
-0.056
-0.06
-0.064
-0.067
-0.067
-0.067
-0.066
-0.065
-0.065
-0.062
-0.062
-0.062
-0.061
-0.059
-0.059
-0.059
-0.057
-0.057
-0.055
-0.054
-0.053
-0.053
-0.054
-0.054
-0.053
-0.052
-0.052
-0.051
-0.05
-0.05
-0.05
-0.048
-0.048
-0.047
-0.048
-0.047
-0.048
-0.048
-0.047
-0.044
-0.044
-0.044
-0.043
-0.042
-0.042
-0.042
-0.04
-0.038
-0.037
-0.036
-0.036
-0.036
-0.037
-0.037
-0.037
-0.036
-0.035
-0.033
-0.029
-0.025
-0.018
-0.01
-0.001
0.007
0.015
0.022
0.027
0.03
0.032
0.033
0.034
0.031
0.028
0.024
0.018
0.01
0.003
-0.005
-0.013
-0.02
-0.025
-0.028
-0.031
-0.032
-0.032
-0.033
-0.033
-0.032
-0.032
-0.031
-0.03
-0.029
-0.028
-0.028
-0.028
-0.027
-0.028
-0.028
-0.027
-0.027
-0.031
-0.035
-0.028
0.013
0.043
0.089
0.147
0.205
0.237
0.293
0.35
0.396
0.419
0.417
0.39
0.337
0.27
0.202
0.136
0.069
0.003
-0.048
-0.081
-0.097
-0.096
-0.082
-0.069
-0.061
-0.057
-0.056
-0.056
-0.055
-0.055
-0.053
-0.053
-0.053
-0.051
-0.05
-0.051
-0.049
-0.049
-0.048
-0.047
-0.043
-0.039
-0.033
-0.025
-0.015
-0.007
0.002
0.01
0.019
0.027
0.037
0.047
0.056
0.065
0.074
0.081
0.087
0.092
0.094
0.096
0.097
0.098
0.099
0.099
0.098
0.096
0.093
0.09
0.088
0.084
0.081
0.076
0.069
0.061
0.052
0.041
0.03
0.02
0.01
-0
-0.01
-0.019
-0.028
-0.038
-0.047
-0.055
-0.06
-0.063
-0.065
-0.065
-0.065
-0.065
-0.066
-0.065
-0.066
-0.065
-0.064
-0.062
-0.06
-0.058
-0.058
-0.057
-0.057
-0.058
-0.056
-0.055
-0.054
-0.053
-0.052
-0.051
-0.051
-0.051
-0.051
-0.051
-0.051
-0.051
-0.05
-0.049
-0.049
-0.048
-0.047
-0.046
-0.045
-0.044
-0.044
-0.045
-0.046
-0.046
-0.046
-0.047
-0.047
-0.046
-0.046
-0.046
-0.045
-0.044
-0.044
-0.043
-0.043
-0.043
-0.043
-0.043
-0.041
-0.037
-0.032
-0.024
-0.016
-0.007
0.001
0.009
0.017
0.022
0.026
0.028
0.028
0.027
0.025
0.021
0.013
0.007
-0
-0.008
-0.016
-0.02
-0.028
-0.034
-0.039
-0.042
-0.043
-0.044
-0.044
-0.043
-0.042
-0.041
-0.04
-0.038
-0.038
-0.038
-0.038
-0.038
-0.038
-0.038
-0.038
-0.038
-0.038
-0.042
-0.047
-0.041
-0.024
0.005
0.049
0.104
0.163
0.221
0.278
0.334
0.381
0.405
0.404
0.378
0.327
0.261
0.192
0.124
0.056
-0.009
-0.059
-0.093
-0.111
-0.11
-0.096
-0.083
-0.074
-0.069
-0.067
-0.067
-0.067
-0.067
-0.065
-0.064
-0.065
-0.064
-0.063
-0.063
-0.063
-0.062
-0.061
-0.061
-0.059
-0.055
-0.049
-0.042
-0.032
-0.022
-0.013
-0.004
0.004
0.012
0.021
0.03
0.041
0.051
0.06
0.068
0.075
0.079
0.08
0.082
0.083
0.083
0.083
0.083
0.083
0.081
0.079
0.077
0.075
0.07
0.066
0.062
0.049
0.041
0.032
0.021
0.01
0.005
-0.005
-0.013
-0.022
-0.031
-0.039
-0.048
-0.057
-0.065
-0.071
-0.075
-0.077
-0.076
-0.075
-0.074
-0.073
-0.073
-0.071
-0.071
-0.071
-0.07
-0.068
-0.067
-0.066
-0.065
-0.064
-0.064
-0.063
-0.062
-0.061
-0.061
-0.061
-0.06
-0.06
-0.06
-0.059
-0.059
-0.059
-0.059
-0.058
-0.058
-0.058
-0.057
-0.056
-0.056
-0.056
-0.055
-0.053
-0.053
-0.052
-0.051
-0.049
-0.049
-0.049
-0.049
-0.048
-0.048
-0.047
-0.046
-0.046
-0.046
-0.047
-0.048
-0.048
-0.048
-0.047
-0.043
-0.036
-0.027
-0.017
-0.007
0.001
0.009
0.016
0.021
0.025
0.027
0.028
0.027
0.024
0.021
0.014
0.008
0.001
-0.006
-0.015
-0.02
-0.027
-0.033
-0.037
-0.038
-0.038
-0.037
-0.037
-0.037
-0.037
-0.037
-0.037
-0.037
-0.037
-0.037
-0.036
-0.035
-0.034
-0.033
-0.033
-0.032
-0.031
-0.034
-0.038
-0.033
-0.016
0.011
0.054
0.109
0.167
0.223
0.279
0.335
0.384
0.41
0.411
0.387
0.338
0.27
0.202
0.134
0.066
0
-0.052
-0.088
-0.106
-0.106
-0.093
-0.08
-0.071
-0.066
-0.064
-0.063
-0.062
-0.062
-0.061
-0.061
-0.06
-0.059
-0.059
-0.058
-0.057
-0.055
-0.054
-0.051
-0.05
-0.046
-0.042
-0.036
-0.027
-0.018
-0.008
0.001
0.011
0.019
0.029
0.038
0.049
0.059
0.069
0.077
0.084
0.088
0.091
0.092
0.094
0.095
0.095
0.095
0.095
0.093
0.091
0.089
0.087
0.084
0.08
0.076
0.07
0.062
0.053
0.043
0.032
0.022
0.011
0.002
-0.007
-0.016
-0.025
-0.034
-0.042
-0.049
-0.055
-0.058
-0.06
-0.061
-0.061
-0.061
-0.062
-0.062
-0.061
-0.059
-0.058
-0.057
-0.054
-0.053
-0.052
-0.051
-0.049
-0.049
-0.049
-0.048
-0.047
-0.047
-0.047
-0.048
-0.048
-0.049
-0.048
-0.047
-0.047
-0.046
-0.046
-0.046
-0.046
-0.045
-0.044
-0.043
-0.041
-0.039
-0.038
-0.038
-0.038
-0.038
-0.038
-0.038
-0.038
-0.038
-0.036
-0.036
-0.035
-0.034
-0.033
-0.035
-0.035
-0.035
-0.036
-0.036
-0.033
-0.029
-0.023
-0.015
-0.006
0.002
0.011
0.018
0.025
0.03
0.035
0.038
0.04
0.038
0.037
0.033
0.029
0.022
0.015
0.007
-0.003
-0.012
-0.02
-0.026
-0.03
-0.032
-0.032
-0.032
-0.033
-0.033
-0.032
-0.031
-0.031
-0.03
-0.03
-0.03
-0.03
-0.029
-0.029
-0.029
-0.028
-0.028
-0.028
-0.031
-0.036
-0.031
-0.015
0.013
0.055
0.11
0.168
0.225
0.281
0.337
0.385
0.411
0.413
0.39
0.342
0.277
0.208
0.141
0.073
0.007
-0.045
-0.081
-0.101
-0.102
-0.089
-0.077
-0.068
-0.063
-0.061
-0.061
-0.061
-0.06
-0.059
-0.058
-0.057
-0.056
-0.054
-0.054
-0.053
-0.051
-0.05
-0.052
-0.051
-0.047
-0.042
-0.034
-0.024
-0.015
-0.006
0.002
0.01
0.019
0.029
0.039
0.049
0.058
0.067
0.074
0.08
0.084
0.087
0.089
0.091
0.092
0.093
0.094
0.094
0.092
0.09
0.087
0.083
0.079
0.074
0.068
0.062
0.054
0.045
0.035
0.024
0.013
0.003
-0.007
-0.015
-0.024
-0.033
-0.042
-0.051
-0.059
-0.066
-0.07
-0.071
-0.071
-0.071
-0.07
-0.071
-0.071
-0.071
-0.07
-0.069
-0.067
-0.066
-0.066
-0.066
-0.064
-0.064
-0.063
-0.062
-0.061
-0.062
-0.062
-0.062
-0.061
-0.06
-0.06
-0.06
-0.059
-0.06
-0.059
-0.057
-0.056
-0.055
-0.054
-0.053
-0.053
-0.053
-0.052
-0.051
-0.05
-0.05
-0.05
-0.05
-0.05
-0.05
-0.049
-0.048
-0.047
-0.047
-0.046
-0.045
-0.045
-0.045
-0.044
-0.044
-0.044
-0.042
-0.039
-0.035
-0.028
-0.02
-0.012
-0.003
0.005
0.012
0.017
0.02
0.021
0.021
0.019
0.017
0.014
0.01
0.005
-0.002
-0.009
-0.017
-0.025
-0.033
-0.039
-0.043
-0.046
-0.047
-0.046
-0.046
-0.047
-0.047
-0.047
-0.047
-0.046
-0.045
-0.044
-0.044
-0.043
-0.042
-0.043
-0.044
-0.043
-0.043
-0.045
-0.049
-0.044
-0.029
-0.001
0.04
0.095
0.174
0.23
0.286
0.342
0.392
0.399
0.402
0.38
0.333
0.266
0.197
0.13
0.063
-0.004
-0.058
-0.095
-0.114
-0.115
-0.102
-0.088
-0.08
-0.075
-0.073
-0.072
-0.071
-0.069
-0.067
-0.067
-0.066
-0.066
-0.065
-0.064
-0.063
-0.062
-0.06
-0.06
-0.058
-0.054
-0.048
-0.041
-0.033
-0.023
-0.014
-0.006
0.003
0.012
0.021
0.032
0.042
0.052
0.062
0.069
0.075
0.08
0.083
0.084
0.086
0.086
0.085
0.085
0.085
0.084
0.083
0.081
0.079
0.077
0.073
0.069
0.063
0.055
0.045
0.035
0.021
0.01
-0.002
-0.012
-0.02
-0.026
-0.034
-0.042
-0.051
-0.059
-0.064
-0.068
-0.07
-0.071
-0.071
-0.071
-0.071
-0.07
-0.069
-0.068
-0.067
-0.066
-0.065
-0.065
-0.065
-0.064
-0.063
-0.062
-0.062
-0.06
-0.059
-0.057
-0.057
-0.057
-0.056
-0.057
-0.056
-0.055
-0.055
-0.055
-0.055
-0.055
-0.055
-0.055
-0.055
-0.054
-0.054
-0.053
-0.052
-0.051
-0.05
-0.049
-0.048
-0.047
-0.046
-0.045
-0.044
-0.043
-0.042
-0.042
-0.041
-0.042
-0.042
-0.042
-0.042
-0.042
-0.04
-0.036
-0.031
-0.024
-0.015
-0.006
0.002
0.01
0.016
0.021
0.025
0.026
0.027
0.028
0.027
0.024
0.02
0.013
0.006
-0.001
-0.01
-0.018
-0.026
-0.031
-0.035
-0.037
-0.038
-0.037
-0.038
-0.038
-0.038
-0.036
-0.035
-0.034
-0.032
-0.032
-0.031
-0.032
-0.031
-0.031
-0.031
-0.031
-0.031
-0.036
-0.04
-0.035
-0.017
0.013
0.057
0.114
0.172
0.229
0.286
0.342
0.39
0.415
0.415
0.39
0.341
0.275
0.208
0.141
0.073
0.007
-0.045
-0.081
-0.099
-0.1
-0.087
-0.074
-0.065
-0.059
-0.057
-0.056
-0.056
-0.055
-0.054
-0.054
-0.054
-0.053
-0.053
-0.053
-0.053
-0.053
-0.052
-0.051
-0.048
-0.043
-0.035
-0.027
-0.017
-0.008
0.002
0.01
0.019
0.028
0.038
0.047
0.058
0.067
0.076
0.083
0.089
0.094
0.096
0.098
0.099
0.099
0.1
0.1
0.1
0.1
0.098
0.096
0.09
0.087
0.082
0.077
0.071
0.065
0.055
0.044
0.034
0.024
0.014
0.006
-0.003
-0.013
-0.021
-0.03
-0.04
-0.047
-0.053
-0.057
-0.058
-0.058
-0.057
-0.057
-0.057
-0.057
-0.057
-0.057
-0.057
-0.057
-0.055
-0.054
-0.053
-0.052
-0.05
-0.05
-0.05
-0.05
-0.05
-0.049
-0.049
-0.047
-0.046
-0.046
-0.046
-0.045
-0.044
-0.044
-0.043
-0.042
-0.042
-0.042
-0.042
-0.042
-0.042
-0.042
-0.041
-0.041
-0.04
-0.04
-0.039
-0.038
-0.038
-0.037
-0.038
-0.038
-0.037
-0.036
-0.036
-0.034
-0.033
-0.034
-0.035
-0.036
-0.035
-0.033
-0.029
-0.022
-0.013
-0.004
0.006
0.014
0.022
0.027
0.031
0.033
0.034
0.033
0.032
0.029
0.024
0.019
0.012
0.005
-0.008
-0.016
-0.024
-0.029
-0.034
-0.033
-0.034
-0.034
-0.035
-0.035
-0.034
-0.033
-0.032
-0.033
-0.033
-0.033
-0.033
-0.033
-0.032
-0.033
-0.034
-0.034
-0.034
-0.037
-0.022
-0.019
-0.004
0.022
0.063
0.097
0.156
0.214
0.269
0.325
0.376
0.407
0.412
0.393
0.349
0.284
0.214
0.147
0.08
0.013
-0.043
-0.082
-0.104
-0.107
-0.096
-0.081
-0.072
-0.066
-0.064
-0.065
-0.065
-0.065
-0.065
-0.065
-0.065
-0.064
-0.062
-0.061
-0.061
-0.06
-0.058
-0.058
-0.056
-0.052
-0.046
-0.042
-0.034
-0.025
-0.016
-0.007
0.002
0.012
0.022
0.032
0.042
0.052
0.061
0.069
0.075
0.08
0.084
0.086
0.089
0.09
0.09
0.09
0.089
0.087
0.085
0.082
0.08
0.077
0.073
0.068
0.062
0.053
0.043
0.032
0.022
0.011
0
-0.009
-0.018
-0.027
-0.035
-0.043
-0.052
-0.062
-0.069
-0.074
-0.076
-0.076
-0.074
-0.073
-0.072
-0.072
-0.071
-0.072
-0.072
-0.071
-0.07
-0.07
-0.07
-0.07
-0.069
-0.069
-0.069
-0.068
-0.067
-0.068
-0.067
-0.066
-0.066
-0.065
-0.065
-0.063
-0.063
-0.063
-0.061
-0.06
-0.06
-0.059
-0.059
-0.058
-0.059
-0.059
-0.058
-0.058
-0.057
-0.056
-0.055
-0.054
-0.054
-0.054
-0.053
-0.052
-0.052
-0.051
-0.05
-0.051
-0.05
-0.05
-0.049
-0.049
-0.047
-0.043
-0.037
-0.031
-0.023
-0.015
-0.007
0
0.007
0.012
0.016
0.019
0.02
0.02
0.019
0.017
0.014
0.009
0.003
-0.004
-0.012
-0.02
-0.026
-0.032
-0.037
-0.039
-0.041
-0.042
-0.043
-0.043
-0.044
-0.044
-0.045
-0.045
-0.046
-0.045
-0.043
-0.042
-0.041
-0.041
-0.041
-0.041
-0.042
-0.044
-0.049
-0.047
-0.033
-0.007
0.032
0.086
0.145
0.203
0.26
0.316
0.346
0.378
0.385
0.367
0.325
0.284
0.216
0.148
0.079
0.011
-0.045
-0.084
-0.106
-0.111
-0.099
-0.085
-0.075
-0.069
-0.066
-0.067
-0.067
-0.066
-0.065
-0.064
-0.063
-0.062
-0.061
-0.06
-0.059
-0.059
-0.057
-0.056
-0.055
-0.051
-0.044
-0.037
-0.028
-0.019
-0.01
-0.002
0.006
0.014
0.024
0.033
0.043
0.053
0.062
0.069
0.077
0.082
0.085
0.087
0.091
0.091
0.092
0.091
0.09
0.087
0.084
0.082
0.081
0.078
0.075
0.071
0.066
0.058
0.048
0.038
0.026
0.014
0.004
-0.006
-0.014
-0.022
-0.03
-0.037
-0.045
-0.053
-0.059
-0.063
-0.065
-0.065
-0.064
-0.063
-0.063
-0.062
-0.061
-0.06
-0.059
-0.057
-0.056
-0.056
-0.056
-0.056
-0.057
-0.057
-0.057
-0.056
-0.055
-0.053
-0.053
-0.052
-0.053
-0.052
-0.051
-0.05
-0.05
-0.05
-0.05
-0.05
-0.05
-0.05
-0.049
-0.048
-0.047
-0.046
-0.044
-0.043
-0.042
-0.041
-0.04
-0.039
-0.039
-0.039
-0.039
-0.04
-0.04
-0.04
-0.039
-0.039
-0.038
-0.037
-0.036
-0.036
-0.034
-0.03
-0.025
-0.018
-0.01
-0.001
0.006
0.013
0.02
0.026
0.031
0.033
0.034
0.034
0.032
0.03
0.027
0.021
0.015
0.007
-0.001
-0.01
-0.017
-0.022
-0.025
-0.028
-0.029
-0.029
-0.029
-0.029
-0.029
-0.029
-0.029
-0.029
-0.03
-0.029
-0.028
-0.027
-0.026
-0.025
-0.025
-0.025
-0.025
-0.028
-0.034
-0.032
-0.018
0.007
0.045
0.099
0.158
0.215
0.272
0.328
0.381
0.414
0.421
0.404
0.362
0.298
0.228
0.161
0.095
0.029
-0.029
-0.069
-0.093
-0.099
-0.089
-0.075
-0.064
-0.057
-0.054
-0.053
-0.053
-0.052
-0.051
-0.051
-0.051
-0.051
-0.051
-0.05
-0.05
-0.05
-0.048
-0.047
-0.046
-0.043
-0.037
-0.03
-0.022
-0.012
-0.003
0.005
0.013
0.022
0.031
0.039
0.049
0.058
0.067
0.076
0.084
0.091
0.095
0.097
0.098
0.098
0.097
0.097
0.096
0.095
0.092
0.089
0.086
0.083
0.08
0.076
0.067
0.059
0.05
0.04
0.029
0.021
0.011
0.001
-0.008
-0.017
-0.025
-0.033
-0.042
-0.051
-0.057
-0.061
-0.064
-0.066
-0.066
-0.065
-0.065
-0.064
-0.062
-0.061
-0.06
-0.059
-0.059
-0.058
-0.058
-0.058
-0.058
-0.057
-0.057
-0.057
-0.055
-0.055
-0.054
-0.054
-0.054
-0.054
-0.054
-0.053
-0.053
-0.053
-0.052
-0.052
-0.052
-0.051
-0.05
-0.048
-0.047
-0.047
-0.046
-0.046
-0.047
-0.047
-0.046
-0.045
-0.045
-0.044
-0.044
-0.044
-0.044
-0.043
-0.042
-0.041
-0.041
-0.041
-0.041
-0.041
-0.042
-0.039
-0.033
-0.027
-0.018
-0.008
0
0.007
0.015
0.021
0.024
0.027
0.029
0.029
0.027
0.025
0.021
0.015
0.008
0.001
-0.007
-0.015
-0.023
-0.03
-0.036
-0.04
-0.042
-0.042
-0.042
-0.041
-0.041
-0.041
-0.042
-0.042
-0.041
-0.041
-0.041
-0.04
-0.039
-0.039
-0.04
-0.04
-0.04
-0.042
-0.047
-0.046
-0.033
-0.008
0.051
0.104
0.162
0.219
0.276
0.311
0.363
0.397
0.404
0.387
0.345
0.282
0.213
0.146
0.079
0.011
-0.046
-0.086
-0.109
-0.115
-0.105
-0.09
-0.08
-0.074
-0.071
-0.071
-0.071
-0.07
-0.069
-0.067
-0.067
-0.066
-0.066
-0.066
-0.066
-0.066
-0.065
-0.064
-0.062
-0.059
-0.05
-0.044
-0.035
-0.025
-0.015
-0.008
0.001
0.009
0.018
0.027
0.036
0.046
0.055
0.063
0.069
0.074
0.077
0.08
0.081
0.083
0.083
0.084
0.083
0.081
0.078
0.076
0.075
0.074
0.072
0.068
0.057
0.05
0.041
0.031
0.021
0.015
0.004
-0.006
-0.016
-0.024
-0.033
-0.041
-0.05
-0.058
-0.065
-0.07
-0.073
-0.075
-0.075
-0.075
-0.075
-0.073
-0.073
-0.072
-0.071
-0.07
-0.07
-0.069
-0.068
-0.066
-0.064
-0.064
-0.063
-0.063
-0.063
-0.063
-0.064
-0.064
-0.062
-0.063
-0.062
-0.061
-0.06
-0.06
-0.059
-0.058
-0.058
-0.058
-0.057
-0.056
-0.056
-0.056
-0.055
-0.054
-0.053
-0.053
-0.051
-0.051
-0.05
-0.05
-0.049
-0.049
-0.049
-0.047
-0.045
-0.044
-0.044
-0.043
-0.043
-0.044
-0.043
-0.039
-0.035
-0.029
-0.021
-0.012
-0.003
0.005
0.012
0.018
0.022
0.024
0.025
0.025
0.025
0.023
0.019
0.015
0.007
-0
-0.008
-0.017
-0.025
-0.031
-0.034
-0.037
-0.038
-0.039
-0.039
-0.041
-0.042
-0.042
-0.041
-0.04
-0.038
-0.037
-0.036
-0.036
-0.036
-0.036
-0.036
-0.035
-0.035
-0.037
-0.041
-0.04
-0.028
-0.005
0.033
0.085
0.143
0.201
0.258
0.315
0.369
0.406
0.417
0.403
0.339
0.277
0.208
0.14
0.073
0.032
-0.028
-0.07
-0.095
-0.102
-0.093
-0.079
-0.068
-0.062
-0.06
-0.059
-0.058
-0.056
-0.057
-0.057
-0.057
-0.056
-0.056
-0.053
-0.052
-0.052
-0.051
-0.05
-0.049
-0.046
-0.036
-0.03
-0.022
-0.011
-0.001
0.003
0.013
0.022
0.034
0.044
0.054
0.065
0.074
0.08
0.086
0.091
0.094
0.096
0.098
0.1
0.1
0.1
0.1
0.099
0.097
0.095
0.092
0.089
0.085
0.081
0.075
0.068
0.059
0.048
0.037
0.026
0.015
0.005
-0.004
-0.013
-0.021
-0.028
-0.036
-0.044
-0.051
-0.056
-0.059
-0.061
-0.061
-0.061
-0.06
-0.059
-0.057
-0.056
-0.056
-0.056
-0.055
-0.054
-0.053
-0.053
-0.052
-0.052
-0.052
-0.051
-0.051
-0.05
-0.049
-0.047
-0.046
-0.044
-0.044
-0.044
-0.045
-0.045
-0.044
-0.043
-0.043
-0.043
-0.043
-0.043
-0.043
-0.042
-0.041
-0.04
-0.04
-0.04
-0.04
-0.04
-0.04
-0.039
-0.037
-0.036
-0.035
-0.035
-0.037
-0.038
-0.038
-0.037
-0.037
-0.035
-0.034
-0.031
-0.027
-0.019
-0.01
-0
0.009
0.017
0.024
0.03
0.034
0.037
0.038
0.038
0.037
0.034
0.03
0.025
0.018
0.01
0.002
-0.006
-0.013
-0.019
-0.024
-0.029
-0.031
-0.032
-0.032
-0.032
-0.031
-0.03
-0.028
-0.027
-0.028
-0.028
-0.028
-0.028
-0.028
-0.028
-0.028
-0.027
-0.026
-0.028
-0.034
-0.034
0.002
0.024
0.062
0.114
0.172
0.203
0.261
0.317
0.37
0.407
0.418
0.404
0.366
0.305
0.237
0.169
0.101
0.033
-0.028
-0.072
-0.097
-0.106
-0.098
-0.083
-0.072
-0.065
-0.061
-0.061
-0.061
-0.061
-0.06
-0.06
-0.059
-0.059
-0.058
-0.057
-0.056
-0.056
-0.055
-0.054
-0.053
-0.05
-0.044
-0.038
-0.03
-0.021
-0.011
-0.003
0.005
0.013
0.023
0.032
0.042
0.053
0.063
0.071
0.078
0.083
0.086
0.088
0.09
0.091
0.091
0.092
0.092
0.09
0.088
0.087
0.084
0.081
0.077
0.072
0.066
0.058
0.049
0.038
0.027
0.016
0.005
-0.005
-0.014
-0.022
-0.031
-0.039
-0.048
-0.056
-0.063
-0.067
-0.07
-0.071
-0.07
-0.07
-0.071
-0.07
-0.07
-0.07
-0.069
-0.068
-0.067
-0.066
-0.066
-0.065
-0.064
-0.063
-0.063
-0.062
-0.06
-0.06
-0.059
-0.058
-0.057
-0.058
-0.057
-0.056
-0.056
-0.056
-0.056
-0.057
-0.056
-0.057
-0.057
-0.056
-0.056
-0.055
-0.054
-0.054
-0.053
-0.053
-0.052
-0.052
-0.052
-0.052
-0.051
-0.05
-0.049
-0.048
-0.046
-0.045
-0.046
-0.045
-0.045
-0.046
-0.046
-0.043
-0.038
-0.032
-0.025
-0.016
-0.007
0
0.008
0.014
0.019
0.022
0.024
0.024
0.023
0.02
0.016
0.009
0.002
-0.006
-0.014
-0.023
-0.031
-0.036
-0.04
-0.042
-0.044
-0.044
-0.044
-0.045
-0.045
-0.044
-0.044
-0.043
-0.044
-0.043
-0.044
-0.044
-0.044
-0.043
-0.043
-0.043
-0.043
-0.044
-0.049
-0.049
-0.037
-0.014
0.021
0.072
0.131
0.189
0.246
0.302
0.356
0.393
0.406
0.394
0.333
0.274
0.204
0.136
0.069
0.029
-0.031
-0.075
-0.101
-0.109
-0.102
-0.088
-0.078
-0.072
-0.068
-0.067
-0.065
-0.063
-0.062
-0.062
-0.061
-0.061
-0.061
-0.061
-0.061
-0.061
-0.06
-0.06
-0.059
-0.056
-0.051
-0.044
-0.036
-0.026
-0.015
-0.006
0.002
0.01
0.02
0.029
0.038
0.048
0.058
0.066
0.073
0.079
0.083
0.085
0.086
0.087
0.086
0.086
0.086
0.085
0.083
0.081
0.079
0.076
0.072
0.068
0.063
0.055
0.047
0.037
0.021
0.011
0.001
-0.008
-0.017
-0.021
-0.03
-0.038
-0.047
-0.056
-0.063
-0.068
-0.072
-0.073
-0.072
-0.071
-0.07
-0.07
-0.068
-0.068
-0.067
-0.067
-0.065
-0.065
-0.064
-0.064
-0.062
-0.061
-0.061
-0.059
-0.058
-0.057
-0.057
-0.057
-0.056
-0.055
-0.054
-0.052
-0.051
-0.052
-0.053
-0.053
-0.053
-0.053
-0.051
-0.05
-0.05
-0.05
-0.049
-0.049
-0.048
-0.048
-0.047
-0.047
-0.047
-0.046
-0.045
-0.044
-0.044
-0.043
-0.042
-0.042
-0.041
-0.041
-0.04
-0.039
-0.038
-0.034
-0.029
-0.024
-0.017
-0.01
-0.002
0.005
0.012
0.018
0.022
0.025
0.026
0.026
0.026
0.025
0.022
0.017
0.012
0.005
-0.003
-0.012
-0.02
-0.027
-0.032
-0.035
-0.037
-0.037
-0.036
-0.036
-0.036
-0.035
-0.034
-0.034
-0.035
-0.034
-0.034
-0.033
-0.032
-0.03
-0.03
-0.03
-0.031
-0.033
-0.038
-0.04
-0.029
-0.006
0.029
0.08
0.139
0.196
0.253
0.31
0.365
0.403
0.417
0.407
0.372
0.313
0.245
0.177
0.091
0.023
-0.038
-0.082
-0.109
-0.099
-0.093
-0.079
-0.069
-0.062
-0.059
-0.058
-0.057
-0.056
-0.055
-0.055
-0.055
-0.054
-0.052
-0.051
-0.05
-0.049
-0.048
-0.047
-0.046
-0.041
-0.035
-0.029
-0.021
-0.011
0.003
0.012
0.022
0.031
0.041
0.045
0.055
0.065
0.074
0.082
0.088
0.093
0.096
0.098
0.1
0.101
0.102
0.103
0.102
0.1
0.098
0.095
0.092
0.089
0.086
0.082
0.077
0.07
0.062
0.052
0.04
0.029
0.019
0.01
0.002
-0.004
-0.013
-0.021
-0.03
-0.039
-0.046
-0.052
-0.056
-0.058
-0.058
-0.057
-0.057
-0.056
-0.055
-0.055
-0.055
-0.054
-0.054
-0.054
-0.053
-0.053
-0.053
-0.052
-0.052
-0.052
-0.05
-0.049
-0.049
-0.048
-0.047
-0.048
-0.048
-0.047
-0.045
-0.044
-0.043
-0.042
-0.042
-0.043
-0.043
-0.043
-0.043
-0.043
-0.042
-0.042
-0.042
-0.042
-0.041
-0.041
-0.04
-0.04
-0.039
-0.039
-0.039
-0.039
-0.038
-0.038
-0.038
-0.038
-0.036
-0.036
-0.035
-0.033
-0.028
-0.022
-0.015
-0.007
0.002
0.01
0.018
0.024
0.029
0.031
0.033
0.033
0.031
0.028
0.024
0.017
0.011
0.004
-0.004
-0.012
-0.019
-0.026
-0.03
-0.033
-0.035
-0.035
-0.034
-0.035
-0.035
-0.035
-0.034
-0.035
-0.035
-0.035
-0.034
-0.034
-0.033
-0.032
-0.032
-0.032
-0.032
-0.033
-0.038
-0.039
-0.03
-0.009
0.025
0.074
0.132
0.19
0.247
0.303
0.358
0.398
0.414
0.403
0.368
0.311
0.242
0.173
0.106
0.039
-0.022
-0.067
-0.095
-0.106
-0.1
-0.086
-0.074
-0.066
-0.062
-0.062
-0.061
-0.061
-0.061
-0.061
-0.06
-0.06
-0.059
-0.058
-0.057
-0.057
-0.055
-0.055
-0.055
-0.053
-0.049
-0.043
-0.036
-0.027
-0.015
-0.005
0.003
0.012
0.023
0.03
0.039
0.048
0.058
0.067
0.074
0.08
0.084
0.086
0.087
0.088
0.088
0.088
0.088
0.087
0.084
0.081
0.077
0.073
0.069
0.065
0.06
0.053
0.045
0.035
0.025
0.015
0.005
-0.005
-0.018
-0.026
-0.035
-0.043
-0.05
-0.054
-0.061
-0.065
-0.069
-0.071
-0.071
-0.071
-0.07
-0.07
-0.069
-0.068
-0.068
-0.068
-0.068
-0.068
-0.068
-0.067
-0.065
-0.064
-0.063
-0.062
-0.061
-0.06
-0.06
-0.06
-0.059
-0.06
-0.06
-0.059
-0.059
-0.058
-0.058
-0.058
-0.058
-0.058
-0.057
-0.056
-0.055
-0.055
-0.054
-0.054
-0.054
-0.055
-0.054
-0.054
-0.054
-0.053
-0.053
-0.052
-0.051
-0.05
-0.049
-0.048
-0.048
-0.048
-0.047
-0.046
-0.045
-0.041
-0.033
-0.029
-0.023
-0.014
-0.005
-0.001
0.007
0.014
0.019
0.022
0.024
0.025
0.023
0.02
0.016
0.01
0.003
-0.004
-0.013
-0.023
-0.031
-0.038
-0.042
-0.045
-0.045
-0.045
-0.044
-0.044
-0.043
-0.042
-0.042
-0.043
-0.044
-0.044
-0.044
-0.044
-0.042
-0.041
-0.04
-0.039
-0.039
-0.041
-0.045
-0.047
-0.038
-0.016
0.018
0.069
0.127
0.185
0.242
0.299
0.354
0.395
0.41
0.401
0.368
0.31
0.241
0.174
0.086
0.019
-0.044
-0.09
-0.119
-0.109
-0.103
-0.089
-0.077
-0.068
-0.063
-0.062
-0.062
-0.062
-0.062
-0.061
-0.061
-0.059
-0.058
-0.058
-0.058
-0.058
-0.057
-0.057
-0.056
-0.054
-0.049
-0.043
-0.034
-0.024
-0.014
-0.005
0.004
0.012
0.021
0.03
0.04
0.051
0.062
0.07
0.076
0.082
0.085
0.086
0.088
0.09
0.091
0.092
0.092
0.091
0.089
0.085
0.083
0.08
0.076
0.073
0.068
0.062
0.054
0.045
0.034
0.023
0.012
0.001
-0.012
-0.02
-0.029
-0.037
-0.045
-0.049
-0.057
-0.063
-0.066
-0.068
-0.068
-0.067
-0.065
-0.064
-0.062
-0.061
-0.06
-0.06
-0.059
-0.059
-0.059
-0.059
-0.058
-0.058
-0.057
-0.056
-0.056
-0.055
-0.054
-0.054
-0.054
-0.053
-0.053
-0.052
-0.051
-0.05
-0.05
-0.048
-0.047
-0.046
-0.044
-0.043
-0.042
-0.042
-0.041
-0.04
-0.041
-0.041
-0.041
-0.042
-0.043
-0.042
-0.041
-0.04
-0.039
-0.038
-0.038
-0.038
-0.038
-0.037
-0.036
-0.036
-0.035
-0.033
-0.029
-0.024
-0.017
-0.008
0.003
0.012
0.019
0.025
0.03
0.032
0.034
0.035
0.034
0.033
0.03
0.025
0.019
0.012
0.005
-0.004
-0.012
-0.018
-0.023
-0.027
-0.029
-0.031
-0.031
-0.032
-0.031
-0.03
-0.03
-0.029
-0.029
-0.028
-0.028
-0.026
-0.027
-0.027
-0.027
-0.027
-0.026
-0.027
-0.031
-0.034
-0.025
-0.004
0.029
0.078
0.136
0.194
0.251
0.307
0.362
0.403
0.421
0.413
0.381
0.325
0.257
0.188
0.121
0.053
-0.009
-0.056
-0.086
-0.098
-0.094
-0.08
-0.067
-0.059
-0.056
-0.056
-0.055
-0.055
-0.054
-0.052
-0.052
-0.051
-0.05
-0.05
-0.05
-0.05
-0.049
-0.049
-0.049
-0.047
-0.042
-0.036
-0.027
-0.017
-0.007
0.002
0.011
0.018
0.027
0.037
0.047
0.057
0.067
0.076
0.083
0.088
0.092
0.095
0.096
0.097
0.098
0.098
0.098
0.098
0.097
0.094
0.092
0.088
0.083
0.078
0.072
0.065
0.057
0.047
0.036
0.025
0.015
0.004
-0.008
-0.017
-0.025
-0.033
-0.041
-0.046
-0.054
-0.059
-0.061
-0.062
-0.062
-0.061
-0.06
-0.061
-0.06
-0.059
-0.059
-0.059
-0.059
-0.059
-0.059
-0.059
-0.058
-0.057
-0.056
-0.057
-0.056
-0.055
-0.054
-0.054
-0.051
-0.051
-0.051
-0.05
-0.049
-0.049
-0.049
-0.048
-0.047
-0.047
-0.046
-0.046
-0.046
-0.046
-0.046
-0.047
-0.047
-0.047
-0.047
-0.047
-0.047
-0.046
-0.045
-0.045
-0.045
-0.044
-0.043
-0.042
-0.042
-0.042
-0.042
-0.043
-0.044
-0.042
-0.034
-0.028
-0.02
-0.01
-0.001
0.003
0.011
0.017
0.021
0.024
0.025
0.025
0.025
0.023
0.02
0.015
0.009
0.002
-0.005
-0.013
-0.022
-0.029
-0.035
-0.04
-0.044
-0.046
-0.046
-0.046
-0.046
-0.045
-0.043
-0.043
-0.042
-0.041
-0.041
-0.042
-0.043
-0.043
-0.042
-0.042
-0.042
-0.042
-0.046
-0.049
-0.041
-0.022
0.01
0.058
0.116
0.174
0.231
0.289
0.345
0.389
0.408
0.402
0.371
0.316
0.248
0.18
0.114
0.046
-0.019
-0.068
-0.093
-0.108
-0.104
-0.089
-0.076
-0.075
-0.071
-0.07
-0.071
-0.071
-0.07
-0.068
-0.068
-0.067
-0.067
-0.067
-0.067
-0.067
-0.065
-0.065
-0.064
-0.062
-0.057
-0.051
-0.042
-0.032
-0.022
-0.013
-0.005
0.004
0.016
0.025
0.035
0.047
0.058
0.062
0.07
0.076
0.079
0.081
0.083
0.084
0.085
0.086
0.086
0.085
0.083
0.081
0.078
0.076
0.072
0.068
0.062
0.055
0.046
0.037
0.027
0.017
0.007
-0.003
-0.012
-0.021
-0.03
-0.039
-0.048
-0.057
-0.065
-0.07
-0.073
-0.075
-0.074
-0.074
-0.074
-0.074
-0.073
-0.072
-0.072
-0.071
-0.069
-0.068
-0.067
-0.065
-0.064
-0.065
-0.066
-0.067
-0.067
-0.067
-0.066
-0.065
-0.064
-0.063
-0.063
-0.062
-0.061
-0.059
-0.059
-0.057
-0.056
-0.055
-0.054
-0.053
-0.053
-0.052
-0.052
-0.051
-0.051
-0.051
-0.05
-0.049
-0.049
-0.05
-0.05
-0.05
-0.051
-0.051
-0.05
-0.049
-0.049
-0.049
-0.047
-0.047
-0.047
-0.045
-0.037
-0.032
-0.024
-0.015
-0.002
0.003
0.011
0.017
0.022
0.023
0.025
0.025
0.023
0.021
0.018
0.012
0.007
0.001
-0.006
-0.014
-0.022
-0.028
-0.034
-0.038
-0.039
-0.04
-0.041
-0.041
-0.041
-0.039
-0.038
-0.037
-0.036
-0.036
-0.037
-0.038
-0.038
-0.037
-0.036
-0.036
-0.036
-0.036
-0.04
-0.043
-0.034
-0.015
0.017
0.063
0.12
0.178
0.235
0.291
0.345
0.388
0.408
0.403
0.374
0.321
0.254
0.186
0.119
0.051
-0.011
-0.059
-0.084
-0.098
-0.095
-0.081
-0.068
-0.067
-0.063
-0.06
-0.06
-0.06
-0.06
-0.059
-0.059
-0.058
-0.055
-0.054
-0.052
-0.051
-0.051
-0.05
-0.05
-0.047
-0.041
-0.035
-0.027
-0.019
-0.01
-0.002
0.006
0.015
0.03
0.039
0.049
0.059
0.069
0.072
0.078
0.084
0.088
0.09
0.092
0.094
0.095
0.095
0.095
0.094
0.092
0.089
0.087
0.084
0.08
0.077
0.072
0.065
0.057
0.048
0.038
0.027
0.017
0.007
-0.002
-0.01
-0.017
-0.025
-0.034
-0.043
-0.051
-0.058
-0.061
-0.062
-0.062
-0.062
-0.061
-0.061
-0.06
-0.059
-0.058
-0.058
-0.058
-0.057
-0.057
-0.057
-0.054
-0.053
-0.052
-0.052
-0.051
-0.051
-0.05
-0.049
-0.048
-0.047
-0.047
-0.047
-0.045
-0.045
-0.044
-0.043
-0.042
-0.043
-0.042
-0.042
-0.043
-0.043
-0.043
-0.041
-0.04
-0.039
-0.038
-0.038
-0.038
-0.038
-0.038
-0.037
-0.037
-0.038
-0.037
-0.037
-0.037
-0.036
-0.035
-0.035
-0.034
-0.031
-0.026
-0.021
-0.014
-0.005
0.004
0.011
0.018
0.025
0.031
0.034
0.036
0.037
0.037
0.033
0.029
0.023
0.015
0.008
0
-0.008
-0.015
-0.021
-0.025
-0.029
-0.031
-0.032
-0.033
-0.033
-0.033
-0.032
-0.031
-0.03
-0.029
-0.029
-0.029
-0.029
-0.028
-0.027
-0.026
-0.026
-0.027
-0.029
-0.034
-0.037
-0.028
-0.007
0.027
0.075
0.133
0.19
0.246
0.301
0.357
0.399
0.416
0.408
0.375
0.318
0.249
0.181
0.115
0.049
-0.014
-0.061
-0.085
-0.098
-0.094
-0.08
-0.068
-0.065
-0.061
-0.06
-0.059
-0.059
-0.059
-0.058
-0.058
-0.059
-0.058
-0.058
-0.057
-0.056
-0.054
-0.054
-0.053
-0.051
-0.046
-0.04
-0.032
-0.022
-0.013
-0.004
0.004
0.013
0.022
0.032
0.043
0.053
0.063
0.072
0.078
0.084
0.088
0.091
0.093
0.094
0.095
0.094
0.094
0.092
0.09
0.088
0.086
0.082
0.079
0.074
0.069
0.062
0.053
0.043
0.033
0.023
0.013
0.003
-0.006
-0.016
-0.026
-0.036
-0.048
-0.057
-0.065
-0.07
-0.073
-0.072
-0.073
-0.073
-0.072
-0.072
-0.07
-0.07
-0.068
-0.068
-0.067
-0.066
-0.065
-0.064
-0.063
-0.063
-0.064
-0.063
-0.063
-0.063
-0.062
-0.06
-0.059
-0.058
-0.057
-0.056
-0.057
-0.057
-0.056
-0.056
-0.055
-0.054
-0.053
-0.052
-0.051
-0.051
-0.05
-0.05
-0.05
-0.05
-0.05
-0.049
-0.049
-0.049
-0.049
-0.049
-0.049
-0.048
-0.047
-0.046
-0.046
-0.045
-0.045
-0.045
-0.043
-0.041
-0.038
-0.033
-0.027
-0.019
-0.01
-0.002
0.005
0.012
0.018
0.022
0.024
0.024
0.023
0.02
0.017
0.011
0.005
-0.002
-0.01
-0.018
-0.026
-0.033
-0.04
-0.045
-0.048
-0.05
-0.05
-0.048
-0.048
-0.048
-0.048
-0.049
-0.049
-0.049
-0.048
-0.047
-0.047
-0.046
-0.045
-0.045
-0.045
-0.044
-0.048
-0.052
-0.046
-0.028
0.002
0.047
0.103
0.161
0.219
0.276
0.333
0.379
0.401
0.399
0.373
0.321
0.253
0.185
0.116
0.048
-0.016
-0.064
-0.095
-0.11
-0.109
-0.095
-0.082
-0.073
-0.069
-0.067
-0.067
-0.067
-0.068
-0.068
-0.068
-0.069
-0.069
-0.068
-0.068
-0.067
-0.065
-0.063
-0.061
-0.058
-0.052
-0.046
-0.039
-0.03
-0.02
-0.011
-0.003
0.006
0.015
0.025
0.034
0.044
0.057
0.065
0.073
0.079
0.083
0.082
0.085
0.086
0.087
0.087
0.087
0.086
0.085
0.082
0.08
0.077
0.073
0.069
0.064
0.058
0.05
0.04
0.029
0.018
0.007
-0.004
-0.014
-0.022
-0.031
-0.039
-0.05
-0.057
-0.065
-0.069
-0.072
-0.072
-0.072
-0.071
-0.071
-0.07
-0.069
-0.068
-0.067
-0.067
-0.065
-0.064
-0.064
-0.063
-0.062
-0.063
-0.063
-0.062
-0.061
-0.061
-0.061
-0.061
-0.059
-0.058
-0.058
-0.056
-0.054
-0.053
-0.051
-0.048
-0.048
-0.048
-0.049
-0.049
-0.048
-0.046
-0.046
-0.045
-0.045
-0.044
-0.044
-0.044
-0.045
-0.045
-0.044
-0.044
-0.043
-0.042
-0.042
-0.042
-0.041
-0.041
-0.041
-0.041
-0.041
-0.039
-0.035
-0.03
-0.023
-0.015
-0.004
0.004
0.011
0.019
0.026
0.028
0.031
0.032
0.031
0.029
0.026
0.021
0.015
0.008
0
-0.007
-0.016
-0.023
-0.029
-0.034
-0.038
-0.039
-0.039
-0.039
-0.04
-0.039
-0.036
-0.035
-0.034
-0.033
-0.032
-0.032
-0.033
-0.033
-0.033
-0.032
-0.032
-0.032
-0.034
-0.037
-0.032
-0.014
0.015
0.059
0.116
0.174
0.231
0.288
0.344
0.39
0.414
0.412
0.386
0.335
0.268
0.201
0.134
0.066
0.001
-0.051
-0.085
-0.102
-0.101
-0.088
-0.075
-0.066
-0.061
-0.058
-0.056
-0.056
-0.055
-0.054
-0.054
-0.054
-0.053
-0.052
-0.051
-0.05
-0.049
-0.049
-0.048
-0.046
-0.042
-0.036
-0.028
-0.019
-0.009
-0
0.008
0.017
0.026
0.035
0.044
0.054
0.066
0.075
0.082
0.088
0.092
0.093
0.096
0.097
0.098
0.1
0.102
0.102
0.102
0.099
0.095
0.091
0.087
0.081
0.076
0.07
0.061
0.051
0.041
0.031
0.021
0.012
0.003
-0.005
-0.014
-0.024
-0.033
-0.042
-0.05
-0.055
-0.058
-0.059
-0.059
-0.057
-0.056
-0.056
-0.055
-0.055
-0.055
-0.055
-0.055
-0.054
-0.053
-0.052
-0.051
-0.05
-0.05
-0.05
-0.048
-0.048
-0.047
-0.046
-0.046
-0.045
-0.045
-0.045
-0.045
-0.045
-0.045
-0.045
-0.044
-0.044
-0.044
-0.043
-0.043
-0.044
-0.043
-0.043
-0.043
-0.042
-0.041
-0.04
-0.039
-0.04
-0.04
-0.04
-0.039
-0.038
-0.037
-0.036
-0.036
-0.036
-0.036
-0.036
-0.036
-0.034
-0.03
-0.025
-0.019
-0.012
-0
0.008
0.014
0.021
0.027
0.027
0.029
0.03
0.03
0.028
0.026
0.022
0.015
0.007
-0.001
-0.01
-0.019
-0.025
-0.03
-0.034
-0.036
-0.036
-0.037
-0.037
-0.038
-0.038
-0.038
-0.038
-0.038
-0.038
-0.037
-0.037
-0.037
-0.037
-0.036
-0.036
-0.036
-0.036
-0.038
-0.042
-0.037
-0.019
0.011
0.054
0.109
0.167
0.225
0.282
0.338
0.385
0.41
0.409
0.384
0.336
0.271
0.204
0.136
0.068
0.001
-0.052
-0.087
-0.105
-0.105
-0.092
-0.078
-0.069
-0.064
-0.062
-0.061
-0.06
-0.061
-0.06
-0.06
-0.06
-0.059
-0.059
-0.058
-0.057
-0.056
-0.056
-0.055
-0.053
-0.049
-0.044
-0.037
-0.029
-0.02
-0.011
-0.004
0.003
0.012
0.022
0.031
0.041
0.055
0.065
0.073
0.079
0.084
0.085
0.087
0.088
0.089
0.089
0.089
0.087
0.086
0.084
0.082
0.079
0.076
0.072
0.067
0.06
0.052
0.042
0.032
0.021
0.01
-0
-0.01
-0.018
-0.027
-0.035
-0.043
-0.052
-0.06
-0.066
-0.072
-0.074
-0.074
-0.073
-0.072
-0.07
-0.069
-0.068
-0.068
-0.067
-0.066
-0.066
-0.066
-0.067
-0.066
-0.066
-0.065
-0.064
-0.063
-0.063
-0.063
-0.063
-0.063
-0.063
-0.063
-0.062
-0.061
-0.06
-0.06
-0.059
-0.06
-0.059
-0.059
-0.057
-0.056
-0.054
-0.054
-0.053
-0.053
-0.052
-0.052
-0.051
-0.051
-0.051
-0.051
-0.05
-0.05
-0.049
-0.048
-0.048
-0.048
-0.047
-0.046
-0.045
-0.045
-0.044
-0.041
-0.037
-0.031
-0.022
-0.013
-0.005
0.002
0.009
0.015
0.018
0.021
0.022
0.021
0.018
0.015
0.01
0.003
-0.005
-0.013
-0.021
-0.029
-0.036
-0.041
-0.044
-0.046
-0.046
-0.045
-0.045
-0.045
-0.044
-0.044
-0.044
-0.044
-0.044
-0.044
-0.044
-0.044
-0.044
-0.043
-0.042
-0.041
-0.041
-0.044
-0.048
-0.044
-0.028
-0.001
0.042
0.098
0.156
0.213
0.27
0.326
0.375
0.401
0.403
0.38
0.332
0.266
0.198
0.131
0.064
-0.002
-0.055
-0.091
-0.109
-0.111
-0.098
-0.086
-0.077
-0.072
-0.07
-0.069
-0.068
-0.066
-0.064
-0.062
-0.062
-0.062
-0.062
-0.061
-0.061
-0.059
-0.058
-0.058
-0.057
-0.052
-0.047
-0.039
-0.03
-0.02
-0.011
-0.002
0.007
0.016
0.025
0.034
0.044
0.054
0.063
0.071
0.077
0.081
0.084
0.085
0.087
0.089
0.091
0.093
0.094
0.093
0.09
0.087
0.083
0.079
0.074
0.069
0.063
0.055
0.046
0.036
0.025
0.015
0.005
-0.004
-0.012
-0.02
-0.028
-0.037
-0.045
-0.053
-0.059
-0.062
-0.064
-0.064
-0.062
-0.061
-0.062
-0.062
-0.062
-0.061
-0.061
-0.06
-0.058
-0.057
-0.057
-0.056
-0.055
-0.055
-0.055
-0.055
-0.054
-0.053
-0.053
-0.053
-0.052
-0.051
-0.051
-0.05
-0.049
-0.049
-0.049
-0.049
-0.048
-0.047
-0.046
-0.045
-0.044
-0.044
-0.043
-0.043
-0.043
-0.044
-0.043
-0.044
-0.044
-0.043
-0.042
-0.042
-0.042
-0.041
-0.041
-0.041
-0.04
-0.039
-0.038
-0.036
-0.034
-0.03
-0.025
-0.018
-0.01
-0.002
0.006
0.014
0.021
0.027
0.031
0.034
0.035
0.035
0.033
0.03
0.025
0.019
0.013
0.006
-0.002
-0.01
-0.017
-0.023
-0.028
-0.031
-0.031
-0.032
-0.032
-0.031
-0.031
-0.03
-0.029
-0.029
-0.029
-0.029
-0.029
-0.029
-0.029
-0.028
-0.028
-0.027
-0.027
-0.03
-0.035
-0.031
-0.015
0.013
0.057
0.112
0.17
0.227
0.284
0.34
0.39
0.417
0.42
0.398
0.35
0.285
0.217
0.15
0.082
0.015
-0.038
-0.074
-0.093
-0.096
-0.083
-0.07
-0.062
-0.057
-0.055
-0.054
-0.054
-0.053
-0.052
-0.052
-0.052
-0.053
-0.053
-0.053
-0.053
-0.052
-0.051
-0.049
-0.046
-0.041
-0.036
-0.029
-0.02
-0.01
-0.001
0.008
0.017
0.026
0.035
0.044
0.054
0.064
0.074
0.081
0.088
0.093
0.096
0.098
0.1
0.101
0.101
0.101
0.1
0.098
0.095
0.092
0.089
0.085
0.081
0.076
0.069
0.061
0.052
0.043
0.031
0.02
0.01
-0
-0.009
-0.018
-0.026
-0.034
-0.042
-0.05
-0.055
-0.061
-0.063
-0.064
-0.063
-0.062
-0.061
-0.061
-0.061
-0.061
-0.061
-0.059
-0.058
-0.058
-0.058
-0.057
-0.056
-0.056
-0.056
-0.055
-0.054
-0.055
-0.054
-0.053
-0.054
-0.053
-0.053
-0.053
-0.052
-0.052
-0.051
-0.05
-0.05
-0.049
-0.049
-0.049
-0.05
-0.05
-0.05
-0.05
-0.05
-0.05
-0.049
-0.049
-0.048
-0.047
-0.047
-0.047
-0.046
-0.045
-0.044
-0.043
-0.042
-0.041
-0.04
-0.04
-0.039
-0.036
-0.03
-0.023
-0.013
-0.003
0.006
0.013
0.019
0.024
0.027
0.028
0.029
0.029
0.027
0.024
0.02
0.015
0.008
0.001
-0.008
-0.016
-0.024
-0.03
-0.034
-0.037
-0.038
-0.04
-0.04
-0.041
-0.042
-0.042
-0.041
-0.04
-0.039
-0.038
-0.038
-0.038
-0.038
-0.037
-0.038
-0.038
-0.038
-0.04
-0.045
-0.041
-0.025
0.002
0.043
0.097
0.155
0.212
0.268
0.323
0.373
0.402
0.406
0.385
0.339
0.272
0.202
0.135
0.067
0.002
-0.052
-0.09
-0.11
-0.113
-0.102
-0.088
-0.078
-0.072
-0.07
-0.069
-0.068
-0.068
-0.067
-0.065
-0.065
-0.064
-0.063
-0.064
-0.064
-0.065
-0.064
-0.063
-0.062
-0.057
-0.051
-0.043
-0.033
-0.023
-0.014
-0.005
0.003
0.012
0.022
0.03
0.04
0.049
0.058
0.064
0.07
0.077
0.08
0.082
0.084
0.087
0.086
0.087
0.087
0.087
0.086
0.084
0.081
0.076
0.07
0.064
0.057
0.05
0.042
0.032
0.022
0.012
0.001
-0.008
-0.018
-0.027
-0.035
-0.044
-0.054
-0.062
-0.068
-0.071
-0.074
-0.074
-0.074
-0.073
-0.074
-0.073
-0.073
-0.071
-0.07
-0.07
-0.069
-0.069
-0.069
-0.068
-0.067
-0.068
-0.068
-0.067
-0.067
-0.067
-0.066
-0.064
-0.064
-0.063
-0.062
-0.061
-0.059
-0.058
-0.057
-0.055
-0.054
-0.054
-0.054
-0.054
-0.055
-0.055
-0.054
-0.054
-0.053
-0.053
-0.052
-0.051
-0.051
-0.049
-0.048
-0.048
-0.047
-0.046
-0.046
-0.046
-0.046
-0.044
-0.044
-0.043
-0.041
-0.038
-0.033
-0.026
-0.017
-0.008
0.001
0.008
0.015
0.019
0.023
0.024
0.025
0.025
0.024
0.021
0.018
0.012
0.005
-0.003
-0.01
-0.019
-0.028
-0.034
-0.039
-0.042
-0.043
-0.042
-0.042
-0.042
-0.042
-0.04
-0.039
-0.039
-0.039
-0.038
-0.038
-0.038
-0.038
-0.037
-0.037
-0.037
-0.037
-0.035
-0.039
-0.036
-0.02
0.008
0.045
0.099
0.157
0.214
0.27
0.325
0.376
0.406
0.412
0.392
0.348
0.283
0.215
0.147
0.079
0.012
-0.043
-0.081
-0.101
-0.105
-0.095
-0.081
-0.072
-0.066
-0.064
-0.063
-0.062
-0.062
-0.061
-0.06
-0.059
-0.059
-0.058
-0.057
-0.056
-0.055
-0.055
-0.054
-0.053
-0.05
-0.044
-0.037
-0.028
-0.019
-0.01
-0.001
0.008
0.017
0.027
0.036
0.047
0.057
0.067
0.074
0.081
0.086
0.089
0.091
0.092
0.093
0.093
0.093
0.093
0.092
0.09
0.088
0.086
0.084
0.081
0.077
0.071
0.063
0.054
0.043
0.032
0.022
0.012
0.003
-0.005
-0.013
-0.023
-0.032
-0.041
-0.049
-0.055
-0.059
-0.061
-0.061
-0.06
-0.058
-0.057
-0.056
-0.055
-0.055
-0.056
-0.056
-0.056
-0.057
-0.056
-0.055
-0.053
-0.053
-0.052
-0.051
-0.05
-0.05
-0.049
-0.048
-0.046
-0.045
-0.045
-0.047
-0.047
-0.049
-0.049
-0.049
-0.046
-0.045
-0.044
-0.042
-0.041
-0.04
-0.039
-0.038
-0.038
-0.038
-0.037
-0.036
-0.036
-0.036
-0.036
-0.036
-0.037
-0.036
-0.035
-0.034
-0.033
-0.031
-0.031
-0.03
-0.029
-0.026
-0.021
-0.016
-0.008
0.001
0.01
0.018
0.025
0.031
0.036
0.039
0.041
0.042
0.04
0.036
0.032
0.026
0.018
0.01
0.002
-0.007
-0.015
-0.021
-0.026
-0.029
-0.031
-0.032
-0.033
-0.034
-0.034
-0.033
-0.033
-0.032
-0.031
-0.032
-0.032
-0.032
-0.032
-0.03
-0.029
-0.029
-0.029
-0.026
-0.031
-0.028
-0.013
0.014
0.047
0.1
0.159
0.215
0.271
0.328
0.379
0.409
0.415
0.397
0.354
0.29
0.221
0.152
0.085
0.017
-0.039
-0.077
-0.098
-0.101
-0.09
-0.077
-0.067
-0.062
-0.06
-0.06
-0.06
-0.06
-0.06
-0.059
-0.06
-0.06
-0.059
-0.058
-0.058
-0.056
-0.054
-0.053
-0.052
-0.048
-0.043
-0.036
-0.027
-0.018
-0.009
-0.001
0.008
0.017
0.026
0.036
0.046
0.056
0.065
0.073
0.079
0.083
0.087
0.088
0.089
0.091
0.092
0.092
0.092
0.091
0.089
0.086
0.083
0.08
0.076
0.071
0.064
0.057
0.048
0.038
0.027
0.017
0.006
-0.004
-0.013
-0.021
-0.03
-0.038
-0.046
-0.054
-0.061
-0.065
-0.068
-0.069
-0.069
-0.069
-0.068
-0.067
-0.066
-0.066
-0.065
-0.065
-0.066
-0.067
-0.067
-0.067
-0.067
-0.067
-0.066
-0.065
-0.064
-0.064
-0.063
-0.063
-0.063
-0.063
-0.062
-0.061
-0.061
-0.06
-0.059
-0.058
-0.057
-0.057
-0.057
-0.056
-0.056
-0.056
-0.055
-0.054
-0.054
-0.054
-0.053
-0.053
-0.053
-0.052
-0.051
-0.05
-0.05
-0.05
-0.05
-0.05
-0.051
-0.05
-0.049
-0.049
-0.048
-0.045
-0.041
-0.034
-0.026
-0.017
-0.008
0
0.007
0.013
0.018
0.02
0.022
0.02
0.019
0.016
0.013
0.007
0.003
-0.005
-0.012
-0.021
-0.029
-0.035
-0.04
-0.043
-0.044
-0.044
-0.044
-0.044
-0.044
-0.043
-0.043
-0.043
-0.042
-0.042
-0.042
-0.043
-0.043
-0.042
-0.041
-0.041
-0.04
-0.039
-0.045
-0.043
-0.029
-0.003
0.033
0.088
0.146
0.204
0.262
0.318
0.369
0.401
0.407
0.389
0.347
0.284
0.216
0.149
0.081
0.013
-0.044
-0.084
-0.107
-0.112
-0.102
-0.089
-0.08
-0.073
-0.07
-0.069
-0.068
-0.068
-0.068
-0.067
-0.066
-0.065
-0.064
-0.063
-0.063
-0.063
-0.063
-0.061
-0.06
-0.056
-0.049
-0.042
-0.033
-0.023
-0.013
-0.005
0.003
0.011
0.02
0.029
0.039
0.049
0.059
0.066
0.073
0.078
0.08
0.082
0.084
0.088
0.09
0.091
0.091
0.089
0.085
0.081
0.078
0.075
0.073
0.069
0.064
0.057
0.047
0.036
0.026
0.015
0.004
-0.005
-0.014
-0.023
-0.03
-0.039
-0.047
-0.055
-0.061
-0.065
-0.068
-0.069
-0.069
-0.068
-0.068
-0.069
-0.068
-0.067
-0.068
-0.068
-0.066
-0.065
-0.064
-0.062
-0.061
-0.061
-0.061
-0.06
-0.06
-0.059
-0.058
-0.057
-0.057
-0.056
-0.055
-0.055
-0.055
-0.055
-0.055
-0.054
-0.053
-0.051
-0.05
-0.048
-0.048
-0.048
-0.048
-0.047
-0.047
-0.046
-0.044
-0.045
-0.046
-0.045
-0.044
-0.045
-0.044
-0.044
-0.043
-0.044
-0.043
-0.042
-0.042
-0.042
-0.04
-0.035
-0.03
-0.023
-0.014
-0.005
0.002
0.01
0.017
0.022
0.026
0.028
0.029
0.028
0.027
0.024
0.02
0.015
0.009
0.001
-0.007
-0.016
-0.023
-0.028
-0.031
-0.034
-0.035
-0.035
-0.035
-0.036
-0.036
-0.036
-0.036
-0.036
-0.036
-0.035
-0.034
-0.033
-0.033
-0.032
-0.032
-0.032
-0.032
-0.032
-0.037
-0.036
-0.023
0.001
0.039
0.091
0.15
0.208
0.265
0.32
0.372
0.406
0.416
0.4
0.359
0.296
0.227
0.159
0.092
0.026
-0.031
-0.072
-0.095
-0.1
-0.091
-0.077
-0.067
-0.062
-0.059
-0.058
-0.058
-0.057
-0.056
-0.057
-0.057
-0.056
-0.055
-0.055
-0.052
-0.051
-0.05
-0.05
-0.048
-0.044
-0.038
-0.031
-0.023
-0.013
-0.003
0.005
0.014
0.023
0.032
0.041
0.051
0.061
0.07
0.079
0.086
0.091
0.095
0.097
0.099
0.099
0.099
0.099
0.1
0.099
0.098
0.095
0.092
0.088
0.085
0.082
0.076
0.068
0.059
0.048
0.037
0.027
0.016
0.006
-0.003
-0.012
-0.021
-0.029
-0.038
-0.047
-0.054
-0.058
-0.061
-0.061
-0.059
-0.057
-0.057
-0.056
-0.056
-0.057
-0.058
-0.057
-0.057
-0.056
-0.055
-0.054
-0.054
-0.054
-0.054
-0.054
-0.053
-0.051
-0.05
-0.048
-0.047
-0.047
-0.047
-0.047
-0.047
-0.045
-0.044
-0.042
-0.041
-0.04
-0.04
-0.04
-0.04
-0.04
-0.041
-0.041
-0.041
-0.041
-0.04
-0.038
-0.037
-0.036
-0.035
-0.035
-0.035
-0.035
-0.036
-0.037
-0.037
-0.038
-0.038
-0.037
-0.036
-0.033
-0.028
-0.022
-0.015
-0.006
0.001
0.008
0.015
0.022
0.027
0.03
0.032
0.032
0.03
0.027
0.023
0.018
0.011
0.002
-0.007
-0.015
-0.023
-0.029
-0.033
-0.035
-0.036
-0.036
-0.036
-0.036
-0.035
-0.035
-0.035
-0.035
-0.035
-0.035
-0.034
-0.035
-0.034
-0.034
-0.034
-0.034
-0.034
-0.036
-0.041
-0.04
-0.028
0.021
0.059
0.111
0.169
0.227
0.258
0.314
0.367
0.401
0.41
0.395
0.354
0.292
0.224
0.157
0.09
0.021
-0.038
-0.079
-0.104
-0.111
-0.101
-0.087
-0.076
-0.07
-0.067
-0.066
-0.066
-0.066
-0.066
-0.064
-0.064
-0.063
-0.062
-0.06
-0.061
-0.06
-0.06
-0.059
-0.058
-0.055
-0.051
-0.045
-0.037
-0.027
-0.018
-0.009
0.001
0.01
0.019
0.029
0.039
0.049
0.057
0.065
0.072
0.078
0.082
0.085
0.086
0.087
0.088
0.088
0.088
0.088
0.086
0.083
0.079
0.076
0.072
0.067
0.061
0.053
0.044
0.034
0.023
0.012
0.002
-0.007
-0.016
-0.024
-0.033
-0.041
-0.051
-0.059
-0.067
-0.072
-0.074
-0.075
-0.075
-0.074
-0.073
-0.073
-0.073
-0.072
-0.071
-0.07
-0.07
-0.069
-0.069
-0.069
-0.069
-0.07
-0.07
-0.069
-0.069
-0.067
-0.067
-0.065
-0.065
-0.064
-0.064
-0.063
-0.062
-0.062
-0.061
-0.06
-0.059
-0.059
-0.059
-0.059
-0.059
-0.058
-0.057
-0.056
-0.056
-0.056
-0.055
-0.055
-0.054
-0.053
-0.052
-0.051
-0.05
-0.049
-0.049
-0.049
-0.05
-0.049
-0.049
-0.048
-0.046
-0.041
-0.036
-0.03
-0.022
-0.013
-0.006
0.002
0.009
0.015
0.019
0.021
0.022
0.023
0.022
0.019
0.014
0.004
-0.002
-0.009
-0.017
-0.024
-0.026
-0.033
-0.037
-0.041
-0.043
-0.043
-0.043
-0.043
-0.043
-0.042
-0.042
-0.042
-0.042
-0.041
-0.041
-0.042
-0.041
-0.041
-0.041
-0.042
-0.041
-0.042
-0.046
-0.045
-0.032
0.012
0.049
0.1
0.159
0.218
0.253
0.308
0.361
0.397
0.407
0.393
0.355
0.295
0.226
0.158
0.091
0.024
-0.035
-0.078
-0.104
-0.112
-0.104
-0.09
-0.079
-0.073
-0.07
-0.068
-0.068
-0.066
-0.065
-0.064
-0.064
-0.064
-0.064
-0.063
-0.063
-0.063
-0.062
-0.06
-0.059
-0.055
-0.049
-0.042
-0.034
-0.024
-0.016
-0.007
0.002
0.012
0.022
0.032
0.042
0.052
0.062
0.07
0.077
0.082
0.085
0.088
0.089
0.09
0.092
0.092
0.092
0.089
0.087
0.084
0.082
0.078
0.075
0.071
0.065
0.058
0.05
0.04
0.03
0.019
0.009
-0
-0.009
-0.017
-0.025
-0.034
-0.043
-0.053
-0.06
-0.064
-0.066
-0.067
-0.066
-0.065
-0.065
-0.065
-0.064
-0.063
-0.062
-0.062
-0.061
-0.06
-0.06
-0.06
-0.058
-0.057
-0.056
-0.055
-0.053
-0.053
-0.054
-0.053
-0.053
-0.053
-0.052
-0.052
-0.051
-0.051
-0.051
-0.05
-0.049
-0.049
-0.049
-0.048
-0.048
-0.048
-0.047
-0.047
-0.046
-0.046
-0.045
-0.043
-0.043
-0.043
-0.043
-0.042
-0.042
-0.042
-0.042
-0.041
-0.041
-0.04
-0.039
-0.039
-0.038
-0.035
-0.03
-0.023
-0.015
-0.005
0.004
0.012
0.019
0.024
0.028
0.031
0.032
0.033
0.032
0.03
0.026
0.021
0.014
0.007
-0.001
-0.009
-0.017
-0.024
-0.03
-0.032
-0.034
-0.035
-0.034
-0.034
-0.034
-0.033
-0.031
-0.03
-0.03
-0.029
-0.029
-0.029
-0.03
-0.029
-0.029
-0.029
-0.029
-0.031
-0.035
-0.036
-0.025
0.024
0.062
0.113
0.172
0.229
0.26
0.316
0.37
0.407
0.421
0.408
0.371
0.31
0.241
0.173
0.106
0.038
-0.022
-0.064
-0.09
-0.099
-0.091
-0.076
-0.067
-0.061
-0.057
-0.056
-0.056
-0.056
-0.056
-0.055
-0.055
-0.054
-0.053
-0.051
-0.051
-0.05
-0.049
-0.049
-0.048
-0.045
-0.04
-0.033
-0.025
-0.015
-0.006
0.002
0.011
0.019
0.028
0.038
0.049
0.058
0.068
0.076
0.083
0.088
0.092
0.095
0.096
0.097
0.097
0.096
0.096
0.094
0.092
0.089
0.087
0.084
0.081
0.077
0.071
0.064
0.055
0.045
0.033
0.022
0.011
0.001
-0.007
-0.015
-0.023
-0.03
-0.039
-0.048
-0.055
-0.059
-0.062
-0.063
-0.062
-0.061
-0.062
-0.062
-0.062
-0.062
-0.061
-0.06
-0.059
-0.058
-0.058
-0.058
-0.058
-0.057
-0.057
-0.056
-0.055
-0.054
-0.055
-0.055
-0.054
-0.053
-0.053
-0.052
-0.051
-0.051
-0.051
-0.05
-0.049
-0.049
-0.049
-0.048
-0.047
-0.047
-0.047
-0.046
-0.047
-0.048
-0.047
-0.047
-0.046
-0.045
-0.044
-0.044
-0.043
-0.043
-0.042
-0.042
-0.042
-0.04
-0.04
-0.04
-0.039
-0.036
-0.031
-0.026
-0.019
-0.011
-0.004
0.003
0.009
0.015
0.019
0.022
0.024
0.025
0.024
0.021
0.017
0.007
0.001
-0.007
-0.013
-0.02
-0.022
-0.027
-0.032
-0.035
-0.037
-0.039
-0.039
-0.039
-0.04
-0.04
-0.04
-0.04
-0.04
-0.039
-0.039
-0.039
-0.038
-0.038
-0.038
-0.038
-0.038
-0.04
-0.045
-0.046
-0.035
-0.011
0.025
0.075
0.133
0.191
0.248
0.304
0.358
0.397
0.41
0.397
0.36
0.3
0.23
0.162
0.095
0.029
-0.031
-0.074
-0.101
-0.111
-0.104
-0.09
-0.08
-0.073
-0.07
-0.068
-0.068
-0.068
-0.067
-0.066
-0.066
-0.066
-0.065
-0.064
-0.064
-0.063
-0.062
-0.061
-0.06
-0.057
-0.052
-0.046
-0.037
-0.028
-0.019
-0.009
-0
0.008
0.018
0.027
0.037
0.047
0.058
0.066
0.074
0.079
0.083
0.085
0.087
0.088
0.089
0.089
0.089
0.088
0.086
0.084
0.081
0.078
0.075
0.07
0.064
0.057
0.048
0.038
0.028
0.018
0.007
-0.004
-0.013
-0.022
-0.031
-0.038
-0.047
-0.055
-0.063
-0.068
-0.072
-0.074
-0.074
-0.074
-0.074
-0.073
-0.073
-0.071
-0.07
-0.068
-0.067
-0.065
-0.065
-0.065
-0.064
-0.063
-0.064
-0.063
-0.062
-0.062
-0.062
-0.062
-0.062
-0.062
-0.061
-0.06
-0.059
-0.059
-0.059
-0.059
-0.058
-0.058
-0.057
-0.056
-0.055
-0.056
-0.055
-0.055
-0.054
-0.054
-0.053
-0.051
-0.051
-0.051
-0.05
-0.05
-0.051
-0.05
-0.049
-0.049
-0.048
-0.047
-0.046
-0.046
-0.046
-0.043
-0.038
-0.032
-0.024
-0.014
-0.005
0.002
0.01
0.016
0.021
0.024
0.025
0.026
0.025
0.022
0.018
0.013
0.007
-0
-0.007
-0.015
-0.022
-0.029
-0.034
-0.037
-0.039
-0.039
-0.039
-0.04
-0.04
-0.039
-0.039
-0.039
-0.038
-0.038
-0.038
-0.038
-0.038
-0.038
-0.039
-0.039
-0.038
-0.039
-0.043
-0.044
-0.034
-0.012
0.023
0.073
0.131
0.213
0.269
0.326
0.382
0.394
0.384
0.374
0.339
0.279
0.241
0.173
0.106
0.038
-0.024
-0.069
-0.097
-0.106
-0.1
-0.085
-0.073
-0.065
-0.061
-0.059
-0.058
-0.058
-0.057
-0.055
-0.055
-0.054
-0.053
-0.051
-0.051
-0.051
-0.051
-0.05
-0.049
-0.047
-0.042
-0.035
-0.027
-0.018
-0.009
0
0.009
0.018
0.027
0.037
0.047
0.057
0.067
0.075
0.082
0.086
0.09
0.091
0.093
0.094
0.095
0.095
0.094
0.094
0.093
0.091
0.088
0.081
0.078
0.073
0.067
0.055
0.05
0.04
0.031
0.021
0.016
0.007
-0.001
-0.01
-0.019
-0.028
-0.036
-0.044
-0.051
-0.057
-0.06
-0.062
-0.062
-0.061
-0.06
-0.061
-0.061
-0.06
-0.06
-0.059
-0.058
-0.058
-0.058
-0.057
-0.056
-0.056
-0.053
-0.052
-0.051
-0.05
-0.049
-0.048
-0.047
-0.047
-0.047
-0.045
-0.045
-0.045
-0.045
-0.045
-0.044
-0.044
-0.043
-0.042
-0.041
-0.04
-0.04
-0.04
-0.039
-0.04
-0.039
-0.038
-0.037
-0.037
-0.037
-0.036
-0.037
-0.037
-0.037
-0.037
-0.036
-0.035
-0.035
-0.034
-0.033
-0.031
-0.027
-0.021
-0.013
-0.004
0.005
0.013
0.02
0.025
0.03
0.033
0.035
0.036
0.035
0.033
0.029
0.025
0.018
0.011
0.003
-0.006
-0.015
-0.022
-0.026
-0.031
-0.031
-0.032
-0.031
-0.032
-0.031
-0.03
-0.029
-0.029
-0.029
-0.029
-0.03
-0.03
-0.03
-0.03
-0.029
-0.028
-0.028
-0.029
-0.033
-0.035
-0.026
-0.005
0.029
0.077
0.135
0.216
0.274
0.33
0.384
0.424
0.417
0.408
0.375
0.319
0.251
0.183
0.116
0.048
-0.015
-0.061
-0.091
-0.104
-0.099
-0.086
-0.075
-0.068
-0.064
-0.062
-0.061
-0.059
-0.058
-0.057
-0.056
-0.056
-0.056
-0.056
-0.056
-0.056
-0.056
-0.055
-0.055
-0.052
-0.047
-0.04
-0.031
-0.021
-0.011
-0.002
0.007
0.015
0.024
0.033
0.041
0.051
0.06
0.069
0.078
0.084
0.088
0.09
0.091
0.091
0.091
0.091
0.091
0.09
0.089
0.086
0.085
0.082
0.078
0.073
0.068
0.06
0.052
0.043
0.032
0.021
0.01
0.001
-0.008
-0.017
-0.025
-0.034
-0.042
-0.051
-0.059
-0.064
-0.068
-0.07
-0.071
-0.07
-0.07
-0.07
-0.069
-0.068
-0.068
-0.068
-0.068
-0.067
-0.066
-0.066
-0.065
-0.063
-0.063
-0.062
-0.061
-0.061
-0.061
-0.061
-0.061
-0.061
-0.06
-0.059
-0.058
-0.057
-0.056
-0.055
-0.055
-0.056
-0.055
-0.055
-0.054
-0.054
-0.053
-0.051
-0.05
-0.05
-0.049
-0.048
-0.049
-0.049
-0.049
-0.05
-0.05
-0.05
-0.049
-0.049
-0.048
-0.049
-0.049
-0.049
-0.048
-0.046
-0.041
-0.035
-0.027
-0.018
-0.009
-0.002
0.005
0.011
0.016
0.019
0.021
0.022
0.022
0.02
0.016
0.011
0.005
-0.002
-0.009
-0.02
-0.028
-0.035
-0.04
-0.045
-0.044
-0.045
-0.046
-0.046
-0.045
-0.044
-0.043
-0.043
-0.043
-0.043
-0.043
-0.042
-0.042
-0.041
-0.041
-0.041
-0.041
-0.042
-0.047
-0.049
-0.04
-0.02
0.013
0.062
0.12
0.178
0.235
0.291
0.346
0.389
0.406
0.399
0.367
0.285
0.217
0.149
0.082
0.014
-0.022
-0.069
-0.099
-0.111
-0.107
-0.094
-0.084
-0.077
-0.074
-0.072
-0.071
-0.07
-0.069
-0.068
-0.069
-0.069
-0.069
-0.068
-0.067
-0.066
-0.065
-0.063
-0.062
-0.059
-0.053
-0.046
-0.039
-0.03
-0.021
-0.012
-0.004
0.004
0.013
0.023
0.033
0.043
0.054
0.062
0.069
0.075
0.078
0.081
0.083
0.085
0.085
0.087
0.087
0.086
0.084
0.081
0.078
0.071
0.067
0.063
0.058
0.052
0.048
0.038
0.028
0.017
0.006
-0.003
-0.012
-0.02
-0.029
-0.037
-0.047
-0.056
-0.063
-0.068
-0.072
-0.073
-0.073
-0.071
-0.07
-0.069
-0.068
-0.067
-0.067
-0.066
-0.065
-0.064
-0.063
-0.062
-0.061
-0.059
-0.058
-0.057
-0.056
-0.056
-0.056
-0.057
-0.057
-0.056
-0.057
-0.056
-0.054
-0.053
-0.052
-0.051
-0.052
-0.052
-0.052
-0.051
-0.05
-0.049
-0.048
-0.047
-0.047
-0.046
-0.045
-0.044
-0.045
-0.045
-0.044
-0.043
-0.043
-0.043
-0.043
-0.043
-0.043
-0.043
-0.042
-0.041
-0.04
-0.037
-0.032
-0.026
-0.019
-0.01
-0.001
0.006
0.013
0.019
0.024
0.027
0.029
0.03
0.03
0.028
0.024
0.02
0.014
0.006
-0.002
-0.009
-0.018
-0.025
-0.031
-0.034
-0.037
-0.038
-0.037
-0.036
-0.036
-0.035
-0.034
-0.034
-0.034
-0.033
-0.032
-0.032
-0.033
-0.032
-0.032
-0.032
-0.031
-0.031
-0.036
-0.038
-0.029
-0.008
0.026
0.073
0.13
0.188
0.245
0.3
0.354
0.374
0.392
0.385
0.355
0.3
0.257
0.189
0.121
0.053
-0.01
-0.057
-0.087
-0.099
-0.095
-0.081
-0.069
-0.063
-0.059
-0.058
-0.057
-0.057
-0.056
-0.055
-0.055
-0.054
-0.053
-0.051
-0.05
-0.048
-0.047
-0.043
-0.042
-0.04
-0.035
-0.028
-0.024
-0.015
-0.005
0.005
0.014
0.022
0.031
0.041
0.049
0.059
0.068
0.076
0.083
0.088
0.091
0.094
0.096
0.098
0.1
0.101
0.101
0.1
0.098
0.095
0.092
0.089
0.086
0.081
0.076
0.071
0.063
0.053
0.043
0.033
0.022
0.013
0.003
-0.006
-0.015
-0.024
-0.032
-0.041
-0.047
-0.052
-0.055
-0.057
-0.058
-0.058
-0.058
-0.059
-0.058
-0.057
-0.057
-0.056
-0.055
-0.054
-0.053
-0.052
-0.051
-0.052
-0.051
-0.05
-0.049
-0.049
-0.047
-0.047
-0.047
-0.047
-0.047
-0.046
-0.044
-0.043
-0.042
-0.04
-0.04
-0.04
-0.04
-0.04
-0.04
-0.04
-0.039
-0.038
-0.038
-0.039
-0.039
-0.038
-0.038
-0.038
-0.037
-0.038
-0.038
-0.038
-0.037
-0.037
-0.036
-0.036
-0.036
-0.036
-0.035
-0.033
-0.029
-0.024
-0.018
-0.01
-0.001
0.007
0.016
0.022
0.028
0.032
0.033
0.033
0.032
0.03
0.026
0.022
0.016
0.008
0.001
-0.007
-0.015
-0.022
-0.027
-0.031
-0.034
-0.036
-0.037
-0.037
-0.037
-0.037
-0.036
-0.036
-0.036
-0.035
-0.034
-0.033
-0.032
-0.032
-0.032
-0.034
-0.034
-0.035
-0.039
-0.042
-0.033
-0.013
0.018
0.065
0.121
0.178
0.234
0.29
0.345
0.39
0.409
0.403
0.373
0.318
0.25
0.181
0.115
0.049
-0.015
-0.063
-0.094
-0.108
-0.105
-0.091
-0.078
-0.071
-0.067
-0.065
-0.064
-0.065
-0.064
-0.063
-0.063
-0.063
-0.063
-0.062
-0.062
-0.061
-0.06
-0.059
-0.059
-0.057
-0.053
-0.047
-0.039
-0.03
-0.022
-0.012
-0.004
0.005
0.015
0.025
0.035
0.045
0.055
0.064
0.071
0.077
0.081
0.082
0.084
0.085
0.085
0.085
0.085
0.085
0.083
0.081
0.079
0.076
0.073
0.069
0.063
0.053
0.044
0.033
0.023
0.012
0.005
-0.005
-0.014
-0.022
-0.031
-0.039
-0.047
-0.056
-0.064
-0.069
-0.072
-0.073
-0.072
-0.072
-0.072
-0.072
-0.073
-0.074
-0.073
-0.073
-0.071
-0.07
-0.069
-0.068
-0.068
-0.065
-0.064
-0.063
-0.062
-0.06
-0.06
-0.06
-0.059
-0.058
-0.058
-0.057
-0.057
-0.058
-0.059
-0.059
-0.059
-0.059
-0.058
-0.057
-0.056
-0.055
-0.054
-0.053
-0.052
-0.051
-0.051
-0.051
-0.051
-0.051
-0.05
-0.049
-0.048
-0.048
-0.048
-0.047
-0.047
-0.047
-0.047
-0.046
-0.045
-0.043
-0.039
-0.034
-0.027
-0.019
-0.011
-0.002
0.005
0.012
0.018
0.021
0.023
0.023
0.022
0.02
0.017
0.012
0.007
-0.001
-0.009
-0.016
-0.024
-0.032
-0.037
-0.04
-0.043
-0.044
-0.044
-0.044
-0.045
-0.045
-0.044
-0.045
-0.045
-0.044
-0.043
-0.043
-0.043
-0.041
-0.041
-0.041
-0.041
-0.042
-0.047
-0.051
-0.044
-0.024
0.008
0.054
0.11
0.169
0.227
0.284
0.339
0.384
0.404
0.4
0.37
0.318
0.251
0.183
0.115
0.048
-0.015
-0.064
-0.096
-0.111
-0.109
-0.095
-0.081
-0.072
-0.067
-0.065
-0.066
-0.066
-0.066
-0.065
-0.064
-0.064
-0.064
-0.062
-0.062
-0.061
-0.059
-0.058
-0.057
-0.054
-0.049
-0.041
-0.032
-0.023
-0.014
-0.006
0
0.008
0.017
0.026
0.036
0.046
0.056
0.065
0.072
0.078
0.083
0.085
0.087
0.089
0.09
0.09
0.09
0.089
0.087
0.085
0.083
0.081
0.078
0.075
0.07
0.058
0.05
0.04
0.03
0.019
0.014
0.004
-0.004
-0.012
-0.021
-0.029
-0.037
-0.045
-0.052
-0.057
-0.061
-0.063
-0.063
-0.062
-0.06
-0.06
-0.059
-0.058
-0.059
-0.059
-0.059
-0.059
-0.058
-0.058
-0.058
-0.058
-0.057
-0.057
-0.055
-0.053
-0.053
-0.053
-0.052
-0.05
-0.05
-0.049
-0.047
-0.046
-0.046
-0.045
-0.045
-0.045
-0.044
-0.043
-0.043
-0.043
-0.042
-0.041
-0.041
-0.04
-0.04
-0.039
-0.039
-0.039
-0.038
-0.037
-0.037
-0.037
-0.036
-0.035
-0.034
-0.034
-0.033
-0.032
-0.032
-0.031
-0.028
-0.022
-0.015
-0.006
0.003
0.011
0.019
0.027
0.033
0.037
0.039
0.039
0.038
0.036
0.033
0.028
0.023
0.015
0.006
-0.002
-0.01
-0.017
-0.023
-0.027
-0.03
-0.031
-0.03
-0.03
-0.029
-0.028
-0.028
-0.027
-0.027
-0.027
-0.028
-0.028
-0.03
-0.029
-0.029
-0.028
-0.028
-0.028
-0.032
-0.036
-0.03
-0.012
0.019
0.065
0.122
0.181
0.238
0.295
0.351
0.398
0.421
0.418
0.391
0.339
0.271
0.202
0.135
0.069
0.004
-0.047
-0.079
-0.094
-0.093
-0.079
-0.066
-0.058
-0.054
-0.053
-0.052
-0.052
-0.052
-0.052
-0.052
-0.052
-0.051
-0.049
-0.049
-0.048
-0.047
-0.047
-0.046
-0.045
-0.041
-0.029
-0.022
-0.012
-0.002
0.008
0.01
0.017
0.025
0.034
0.043
0.054
0.065
0.074
0.081
0.087
0.091
0.093
0.093
0.095
0.095
0.096
0.096
0.096
0.095
0.093
0.09
0.088
0.085
0.081
0.075
0.07
0.062
0.051
0.04
0.031
0.02
0.01
0.001
-0.007
-0.016
-0.025
-0.034
-0.043
-0.051
-0.058
-0.062
-0.064
-0.064
-0.063
-0.063
-0.062
-0.062
-0.062
-0.061
-0.061
-0.059
-0.058
-0.057
-0.057
-0.056
-0.056
-0.057
-0.057
-0.057
-0.056
-0.055
-0.054
-0.053
-0.052
-0.052
-0.052
-0.052
-0.051
-0.051
-0.051
-0.05
-0.049
-0.049
-0.049
-0.049
-0.049
-0.049
-0.05
-0.05
-0.049
-0.049
-0.049
-0.047
-0.047
-0.047
-0.046
-0.044
-0.043
-0.043
-0.042
-0.042
-0.043
-0.044
-0.044
-0.044
-0.042
-0.039
-0.034
-0.027
-0.019
-0.01
-0.001
0.006
0.014
0.019
0.023
0.025
0.027
0.027
0.025
0.021
0.016
0.009
0
-0.008
-0.016
-0.024
-0.03
-0.034
-0.037
-0.039
-0.041
-0.043
-0.043
-0.044
-0.044
-0.043
-0.041
-0.041
-0.04
-0.039
-0.038
-0.038
-0.038
-0.037
-0.038
-0.039
-0.04
-0.045
-0.049
-0.043
-0.025
0.005
0.051
0.108
0.166
0.223
0.28
0.336
0.382
0.405
0.403
0.376
0.325
0.258
0.19
0.122
0.054
-0.011
-0.061
-0.095
-0.111
-0.11
-0.096
-0.083
-0.074
-0.069
-0.069
-0.069
-0.069
-0.068
-0.067
-0.067
-0.067
-0.067
-0.066
-0.066
-0.065
-0.064
-0.063
-0.063
-0.062
-0.058
-0.05
-0.043
-0.034
-0.023
-0.014
-0.007
0.002
0.012
0.023
0.034
0.044
0.054
0.062
0.068
0.074
0.079
0.081
0.083
0.084
0.085
0.085
0.085
0.086
0.084
0.083
0.08
0.077
0.073
0.069
0.063
0.056
0.049
0.039
0.028
0.018
0.008
-0.002
-0.012
-0.02
-0.029
-0.039
-0.048
-0.057
-0.066
-0.073
-0.077
-0.08
-0.08
-0.078
-0.077
-0.076
-0.074
-0.073
-0.073
-0.072
-0.071
-0.07
-0.069
-0.067
-0.066
-0.064
-0.063
-0.063
-0.063
-0.063
-0.064
-0.064
-0.063
-0.061
-0.06
-0.06
-0.059
-0.058
-0.058
-0.058
-0.057
-0.056
-0.057
-0.056
-0.056
-0.056
-0.056
-0.056
-0.055
-0.055
-0.054
-0.052
-0.051
-0.05
-0.049
-0.048
-0.048
-0.047
-0.046
-0.045
-0.045
-0.045
-0.045
-0.044
-0.043
-0.042
-0.038
-0.032
-0.026
-0.018
-0.009
-0.001
0.006
0.012
0.018
0.023
0.026
0.027
0.027
0.025
0.022
0.017
0.012
0.005
-0.003
-0.012
-0.02
-0.028
-0.034
-0.037
-0.039
-0.04
-0.041
-0.039
-0.039
-0.038
-0.037
-0.036
-0.038
-0.039
-0.039
-0.039
-0.039
-0.037
-0.036
-0.035
-0.035
-0.035
-0.039
-0.043
-0.037
-0.019
0.01
0.055
0.112
0.171
0.228
0.284
0.339
0.387
0.411
0.411
0.385
0.312
0.245
0.176
0.109
0.031
-0.009
-0.062
-0.096
-0.113
-0.102
-0.089
-0.075
-0.067
-0.062
-0.06
-0.059
-0.058
-0.057
-0.056
-0.056
-0.055
-0.055
-0.054
-0.054
-0.054
-0.054
-0.053
-0.052
-0.051
-0.046
-0.039
-0.031
-0.022
-0.012
-0.003
0.006
0.013
0.022
0.034
0.043
0.052
0.063
0.073
0.079
0.085
0.09
0.093
0.094
0.096
0.097
0.098
0.098
0.097
0.096
0.093
0.09
0.088
0.084
0.081
0.076
0.07
0.062
0.052
0.041
0.028
0.017
0.006
-0.002
-0.011
-0.016
-0.024
-0.032
-0.042
-0.05
-0.056
-0.06
-0.063
-0.063
-0.062
-0.061
-0.059
-0.058
-0.057
-0.056
-0.056
-0.057
-0.056
-0.054
-0.054
-0.053
-0.05
-0.049
-0.049
-0.047
-0.047
-0.047
-0.047
-0.045
-0.044
-0.043
-0.042
-0.042
-0.041
-0.04
-0.041
-0.041
-0.041
-0.042
-0.041
-0.04
-0.039
-0.039
-0.038
-0.037
-0.038
-0.038
-0.037
-0.037
-0.037
-0.037
-0.036
-0.035
-0.034
-0.034
-0.033
-0.032
-0.032
-0.031
-0.031
-0.031
-0.029
-0.025
-0.019
-0.011
-0.003
0.007
0.014
0.021
0.027
0.032
0.036
0.038
0.039
0.039
0.037
0.034
0.03
0.024
0.017
0.009
0
-0.007
-0.013
-0.018
-0.021
-0.023
-0.025
-0.025
-0.027
-0.026
-0.027
-0.026
-0.026
-0.024
-0.024
-0.024
-0.024
-0.024
-0.024
-0.024
-0.024
-0.024
-0.024
-0.027
-0.032
-0.028
-0.011
0.017
0.06
0.116
0.174
0.231
0.288
0.344
0.391
0.416
0.417
0.393
0.344
0.278
0.21
0.141
0.074
0.008
-0.045
-0.08
-0.097
-0.099
-0.087
-0.073
-0.065
-0.061
-0.06
-0.06
-0.06
-0.06
-0.058
-0.057
-0.057
-0.056
-0.056
-0.056
-0.055
-0.054
-0.053
-0.052
-0.05
-0.047
-0.041
-0.033
-0.024
-0.015
-0.003
0.007
0.015
0.024
0.034
0.041
0.049
0.059
0.067
0.075
0.081
0.085
0.087
0.089
0.09
0.091
0.092
0.092
0.091
0.09
0.088
0.086
0.083
0.08
0.075
0.069
0.062
0.053
0.044
0.032
0.017
0.006
-0.004
-0.013
-0.021
-0.025
-0.033
-0.041
-0.049
-0.056
-0.062
-0.066
-0.067
-0.068
-0.067
-0.067
-0.067
-0.067
-0.066
-0.066
-0.065
-0.065
-0.064
-0.064
-0.065
-0.065
-0.065
-0.064
-0.064
-0.063
-0.062
-0.062
-0.062
-0.061
-0.06
-0.059
-0.058
-0.057
-0.056
-0.055
-0.054
-0.053
-0.052
-0.052
-0.052
-0.051
-0.052
-0.052
-0.051
-0.051
-0.051
-0.05
-0.049
-0.05
-0.051
-0.051
-0.051
-0.052
-0.051
-0.051
-0.05
-0.05
-0.05
-0.049
-0.046
-0.046
-0.044
-0.04
-0.034
-0.029
-0.02
-0.011
-0.002
0.004
0.011
0.017
0.02
0.023
0.024
0.024
0.022
0.019
0.015
0.009
0.003
-0.006
-0.015
-0.024
-0.032
-0.038
-0.041
-0.044
-0.045
-0.044
-0.044
-0.045
-0.045
-0.044
-0.044
-0.044
-0.043
-0.042
-0.041
-0.041
-0.041
-0.042
-0.042
-0.043
-0.043
-0.047
-0.05
-0.045
-0.027
0.001
0.045
0.101
0.159
0.216
0.272
0.328
0.377
0.404
0.406
0.383
0.335
0.268
0.199
0.131
0.052
-0.013
-0.066
-0.103
-0.122
-0.11
-0.099
-0.086
-0.077
-0.071
-0.069
-0.068
-0.068
-0.068
-0.067
-0.067
-0.067
-0.067
-0.066
-0.067
-0.067
-0.066
-0.065
-0.064
-0.062
-0.057
-0.051
-0.043
-0.034
-0.024
-0.011
-0.002
0.007
0.016
0.025
0.031
0.04
0.05
0.059
0.066
0.072
0.077
0.079
0.08
0.081
0.082
0.082
0.083
0.083
0.082
0.08
0.078
0.076
0.072
0.068
0.063
0.058
0.051
0.043
0.032
0.021
0.01
-0.001
-0.011
-0.018
-0.026
-0.034
-0.043
-0.051
-0.059
-0.066
-0.07
-0.071
-0.07
-0.069
-0.068
-0.067
-0.066
-0.066
-0.065
-0.066
-0.066
-0.067
-0.067
-0.067
-0.067
-0.065
-0.063
-0.061
-0.06
-0.057
-0.056
-0.056
-0.056
-0.057
-0.058
-0.058
-0.057
-0.056
-0.054
-0.053
-0.052
-0.052
-0.052
-0.052
-0.052
-0.052
-0.052
-0.05
-0.049
-0.049
-0.048
-0.048
-0.048
-0.048
-0.048
-0.046
-0.046
-0.045
-0.044
-0.043
-0.041
-0.04
-0.039
-0.039
-0.039
-0.038
-0.035
-0.029
-0.022
-0.014
-0.005
0.004
0.012
0.019
0.025
0.029
0.032
0.033
0.033
0.031
0.028
0.023
0.016
0.009
0.001
-0.007
-0.016
-0.023
-0.029
-0.033
-0.036
-0.037
-0.037
-0.036
-0.036
-0.035
-0.034
-0.032
-0.032
-0.032
-0.03
-0.03
-0.03
-0.03
-0.029
-0.03
-0.03
-0.03
-0.032
-0.037
-0.033
-0.016
0.012
0.054
0.108
0.166
0.223
0.281
0.338
0.387
0.415
0.417
0.394
0.348
0.283
0.215
0.147
0.066
-0.001
-0.056
-0.092
-0.111
-0.099
-0.088
-0.075
-0.067
-0.062
-0.06
-0.06
-0.058
-0.057
-0.056
-0.054
-0.053
